t,hand,elbow,shoulder,p_hand,p_elbow,p_shoulder,J2,J3,J6,grip_state,cmd_sent
656269.207,0,0,0,0.981,1.000,0.999,-90.00,180.00,0.00,OPEN,0
656269.225,0,0,0,0.997,1.000,0.999,-90.00,180.00,0.00,OPEN,0
656269.230,0,0,0,1.000,1.000,0.998,-90.00,180.00,0.00,OPEN,0
656269.234,0,0,0,1.000,1.000,0.999,-90.00,180.00,0.00,OPEN,0
656269.240,0,0,0,1.000,1.000,0.999,-90.00,180.00,0.00,OPEN,0
656269.244,0,0,0,1.000,1.000,0.999,-90.00,180.00,0.00,OPEN,0
656269.248,0,0,0,1.000,1.000,0.999,-90.00,180.00,0.00,OPEN,0
656269.253,0,0,0,1.000,1.000,0.999,-90.00,180.00,0.00,OPEN,0
656269.257,0,0,0,1.000,1.000,0.999,-90.00,180.00,0.00,OPEN,0
656269.261,0,0,0,1.000,1.000,0.999,-90.00,180.00,0.00,OPEN,0
656269.265,0,0,0,1.000,1.000,0.999,-90.00,180.00,0.00,OPEN,0
656269.269,0,0,0,1.000,1.000,0.998,-90.00,180.00,0.00,OPEN,0
656269.273,0,0,0,1.000,1.000,0.998,-90.00,180.00,0.00,OPEN,0
656269.277,0,0,0,1.000,1.000,0.998,-90.00,180.00,0.00,OPEN,0
656269.282,0,0,0,1.000,1.000,0.996,-90.00,180.00,0.00,OPEN,0
656269.304,0,0,0,1.000,1.000,0.995,-90.00,180.00,0.00,OPEN,0
656269.354,0,0,0,1.000,1.000,0.997,-90.00,180.00,0.00,OPEN,0
656269.404,0,0,0,1.000,1.000,0.996,-90.00,180.00,0.00,OPEN,0
656269.455,0,0,0,1.000,1.000,0.997,-90.00,180.00,0.00,OPEN,0
656269.504,0,0,0,1.000,1.000,0.997,-90.00,180.00,0.00,OPEN,0
656269.553,0,0,0,1.000,1.000,0.992,-90.00,180.00,0.00,OPEN,0
656269.605,0,0,0,1.000,1.000,0.988,-90.00,180.00,0.00,OPEN,0
656269.655,0,0,0,1.000,1.000,0.972,-90.00,180.00,0.00,OPEN,0
656269.704,0,0,0,1.000,1.000,0.994,-90.00,180.00,0.00,OPEN,0
656269.754,0,0,0,1.000,1.000,0.996,-90.00,180.00,0.00,OPEN,0
656269.804,0,0,0,1.000,1.000,0.993,-90.00,180.00,0.00,OPEN,0
656269.854,1,0,0,1.000,1.000,0.994,-90.00,180.00,4.50,OPEN,1
656269.904,1,0,0,1.000,1.000,0.993,-90.00,180.00,4.50,OPEN,0
656269.954,1,0,0,1.000,1.000,0.994,-90.00,180.00,4.50,OPEN,0
656270.004,1,0,0,1.000,1.000,0.985,-90.00,180.00,9.00,OPEN,1
656270.053,1,0,0,1.000,1.000,0.889,-90.00,180.00,9.00,OPEN,0
656270.105,1,0,0,1.000,1.000,0.814,-90.00,180.00,13.50,OPEN,1
656270.154,1,0,0,1.000,1.000,0.943,-90.00,180.00,13.50,OPEN,0
656270.204,1,0,0,1.000,1.000,0.984,-90.00,180.00,13.50,OPEN,0
656270.254,1,0,0,1.000,1.000,0.991,-90.00,180.00,18.00,OPEN,1
656270.304,1,0,0,1.000,1.000,0.992,-90.00,180.00,18.00,OPEN,0
656270.354,1,0,0,1.000,1.000,0.995,-90.00,180.00,18.00,OPEN,0
656270.404,1,0,0,1.000,1.000,0.996,-90.00,180.00,22.50,OPEN,1
656270.454,1,0,0,1.000,1.000,0.998,-90.00,180.00,22.50,OPEN,0
656270.503,1,0,0,1.000,1.000,0.998,-90.00,180.00,22.50,OPEN,0
656270.554,1,0,0,1.000,1.000,0.997,-90.00,180.00,27.00,OPEN,1
656270.604,1,0,0,1.000,1.000,0.994,-90.00,180.00,27.00,OPEN,0
656270.654,1,0,0,1.000,1.000,0.994,-90.00,180.00,31.50,OPEN,1
656270.704,1,0,0,1.000,1.000,0.993,-90.00,180.00,31.50,OPEN,0
656270.754,1,0,0,1.000,1.000,0.989,-90.00,180.00,36.00,OPEN,1
656270.804,1,0,0,1.000,1.000,0.981,-90.00,180.00,36.00,OPEN,0
656270.854,1,0,0,1.000,1.000,0.978,-90.00,180.00,36.00,OPEN,0
656270.904,1,0,0,1.000,1.000,0.983,-90.00,180.00,40.50,OPEN,1
656270.956,1,0,0,1.000,1.000,0.993,-90.00,180.00,40.50,OPEN,0
656271.004,1,0,0,1.000,1.000,0.992,-90.00,180.00,45.00,OPEN,1
656271.054,1,0,0,1.000,1.000,0.992,-90.00,180.00,45.00,OPEN,0
656271.104,1,0,0,1.000,1.000,0.989,-90.00,180.00,49.50,OPEN,1
656271.154,1,0,0,1.000,1.000,0.988,-90.00,180.00,49.50,OPEN,0
656271.204,1,0,0,1.000,1.000,0.957,-90.00,180.00,49.50,OPEN,0
656271.254,1,0,0,1.000,1.000,0.920,-90.00,180.00,54.00,OPEN,1
656271.304,1,0,0,1.000,1.000,0.942,-90.00,180.00,54.00,OPEN,0
656271.354,1,0,0,1.000,1.000,0.936,-90.00,180.00,58.50,OPEN,1
656271.409,1,0,0,1.000,1.000,0.935,-90.00,180.00,58.50,OPEN,0
656271.454,1,0,0,1.000,1.000,0.911,-90.00,180.00,58.50,OPEN,0
656271.504,1,0,0,1.000,1.000,0.908,-90.00,180.00,63.00,OPEN,1
656271.554,1,0,0,1.000,1.000,0.968,-90.00,180.00,63.00,OPEN,0
656271.605,1,0,0,1.000,1.000,0.969,-90.00,180.00,67.50,OPEN,1
656271.654,1,0,0,1.000,1.000,0.981,-90.00,180.00,67.50,OPEN,0
656271.704,1,0,0,1.000,1.000,0.995,-90.00,180.00,67.50,OPEN,0
656271.755,1,0,0,1.000,1.000,0.996,-90.00,180.00,72.00,OPEN,1
656271.804,1,0,0,1.000,1.000,0.996,-90.00,180.00,72.00,OPEN,0
656271.854,1,0,0,1.000,1.000,0.994,-90.00,180.00,72.00,OPEN,0
656271.904,1,0,0,1.000,1.000,0.990,-90.00,180.00,76.50,OPEN,1
656271.954,1,0,0,1.000,1.000,0.986,-90.00,180.00,76.50,OPEN,0
656272.004,1,0,0,1.000,1.000,0.987,-90.00,180.00,76.50,OPEN,0
656272.054,1,0,0,1.000,1.000,0.982,-90.00,180.00,81.00,OPEN,1
656272.105,1,0,0,1.000,1.000,0.978,-90.00,180.00,81.00,OPEN,0
656272.154,1,0,0,1.000,1.000,0.983,-90.00,180.00,81.00,OPEN,0
656272.204,1,0,0,1.000,1.000,0.988,-90.00,180.00,85.50,OPEN,1
656272.255,1,0,0,1.000,1.000,0.994,-90.00,180.00,85.50,OPEN,0
656272.305,1,0,0,1.000,1.000,0.994,-90.00,180.00,90.00,OPEN,1
656272.353,1,0,0,1.000,1.000,0.990,-90.00,180.00,90.00,OPEN,0
656272.404,1,0,0,1.000,1.000,0.991,-90.00,180.00,90.00,OPEN,0
656272.454,1,0,0,1.000,1.000,0.989,-90.00,180.00,94.50,OPEN,1
656272.504,1,0,0,1.000,1.000,0.986,-90.00,180.00,94.50,OPEN,0
656272.554,1,0,0,1.000,1.000,0.985,-90.00,180.00,99.00,OPEN,1
656272.603,1,0,0,1.000,1.000,0.981,-90.00,180.00,99.00,OPEN,0
656272.654,1,0,0,1.000,1.000,0.979,-90.00,180.00,99.00,OPEN,0
656272.712,1,0,0,1.000,1.000,0.988,-90.00,180.00,103.50,OPEN,1
656272.755,1,0,0,1.000,1.000,0.987,-90.00,180.00,103.50,OPEN,0
656272.804,1,0,0,1.000,1.000,0.987,-90.00,180.00,103.50,OPEN,0
656272.854,1,0,0,1.000,1.000,0.987,-90.00,180.00,108.00,OPEN,1
656272.904,1,0,0,1.000,1.000,0.990,-90.00,180.00,108.00,OPEN,0
656272.954,1,0,0,1.000,1.000,0.994,-90.00,180.00,112.50,OPEN,1
656273.004,1,0,0,1.000,1.000,0.989,-90.00,180.00,112.50,OPEN,0
656273.054,1,0,0,1.000,1.000,0.987,-90.00,180.00,112.50,OPEN,0
656273.104,1,0,0,1.000,1.000,0.987,-90.00,180.00,117.00,OPEN,1
656273.154,1,0,0,1.000,1.000,0.990,-90.00,180.00,117.00,OPEN,0
656273.204,1,0,0,1.000,1.000,0.981,-90.00,180.00,121.50,OPEN,1
656273.254,1,0,0,1.000,1.000,0.979,-90.00,180.00,121.50,OPEN,0
656273.304,1,0,0,1.000,1.000,0.985,-90.00,180.00,121.50,OPEN,0
656273.354,1,0,0,1.000,1.000,1.000,-90.00,180.00,126.00,OPEN,1
656273.404,1,0,0,1.000,1.000,1.000,-90.00,180.00,126.00,OPEN,0
656273.454,1,0,0,1.000,1.000,1.000,-90.00,180.00,130.50,OPEN,1
656273.505,1,0,0,1.000,1.000,1.000,-90.00,180.00,130.50,OPEN,0
656273.554,1,0,0,1.000,1.000,1.000,-90.00,180.00,130.50,OPEN,0
656273.604,1,0,0,1.000,1.000,1.000,-90.00,180.00,135.00,OPEN,1
656273.654,1,0,0,1.000,1.000,1.000,-90.00,180.00,135.00,OPEN,0
656273.704,1,0,0,1.000,1.000,1.000,-90.00,180.00,139.50,OPEN,1
656273.754,1,0,0,1.000,1.000,1.000,-90.00,180.00,139.50,OPEN,0
656273.804,1,0,0,1.000,1.000,1.000,-90.00,180.00,139.50,OPEN,0
656273.854,1,0,0,1.000,1.000,1.000,-90.00,180.00,144.00,OPEN,1
656273.904,1,0,0,1.000,1.000,1.000,-90.00,180.00,144.00,OPEN,0
656273.954,1,0,0,1.000,1.000,1.000,-90.00,180.00,144.00,OPEN,0
656274.005,1,0,0,1.000,1.000,1.000,-90.00,180.00,148.50,OPEN,1
656274.054,1,0,0,1.000,1.000,1.000,-90.00,180.00,148.50,OPEN,0
656274.104,1,0,0,1.000,1.000,1.000,-90.00,180.00,148.50,OPEN,0
656274.155,1,0,0,1.000,1.000,1.000,-90.00,180.00,153.00,OPEN,1
656274.204,1,0,0,1.000,1.000,1.000,-90.00,180.00,153.00,OPEN,0
656274.253,1,1,1,1.000,1.000,0.924,0.00,90.00,153.00,OPEN,0
656274.304,1,1,1,1.000,1.000,0.700,0.00,90.00,157.50,OPEN,1
656274.354,1,1,1,1.000,1.000,0.790,0.00,90.00,157.50,OPEN,0
656274.404,1,1,1,1.000,1.000,1.000,0.00,90.00,162.00,OPEN,1
656274.454,1,1,1,1.000,1.000,1.000,0.00,90.00,162.00,OPEN,0
656274.504,1,1,1,1.000,1.000,1.000,0.00,90.00,166.50,OPEN,1
656274.554,1,1,1,0.773,1.000,1.000,0.00,90.00,166.50,OPEN,0
656274.604,1,1,1,1.000,1.000,1.000,0.00,90.00,171.00,OPEN,1
656274.654,1,1,1,1.000,1.000,1.000,0.00,90.00,171.00,OPEN,0
656274.704,1,1,1,1.000,1.000,1.000,0.00,90.00,171.00,OPEN,0
656274.755,1,1,1,1.000,1.000,1.000,0.00,90.00,175.50,OPEN,1
656274.804,1,1,1,1.000,1.000,1.000,0.00,90.00,175.50,OPEN,0
656274.854,1,1,1,1.000,1.000,1.000,0.00,90.00,175.50,OPEN,0
656274.905,1,1,1,1.000,0.522,0.982,0.00,90.00,180.00,OPEN,1
656274.954,0,1,1,1.000,0.998,0.732,0.00,90.00,180.00,OPEN,0
656275.005,0,1,1,1.000,1.000,0.598,0.00,90.00,180.00,OPEN,0
656275.054,0,1,1,1.000,1.000,0.546,0.00,90.00,180.00,OPEN,0
656275.104,0,1,1,1.000,1.000,0.600,0.00,90.00,180.00,OPEN,0
656275.154,0,1,1,1.000,1.000,0.996,0.00,90.00,180.00,OPEN,0
656275.204,0,0,1,1.000,1.000,0.976,0.00,180.00,180.00,OPEN,1
656275.254,0,0,1,1.000,1.000,0.959,0.00,180.00,180.00,OPEN,0
656275.310,0,0,0,1.000,1.000,0.984,-90.00,180.00,180.00,OPEN,1
656275.354,0,0,0,1.000,0.992,0.988,-90.00,180.00,180.00,OPEN,0
656275.404,0,0,0,1.000,0.973,0.978,-90.00,180.00,180.00,OPEN,0
656275.454,0,0,0,1.000,0.743,0.999,-90.00,180.00,180.00,OPEN,0
656275.507,0,0,0,1.000,1.000,1.000,-90.00,180.00,180.00,OPEN,0
656275.562,0,0,0,1.000,1.000,0.995,-90.00,180.00,180.00,OPEN,0
656275.610,0,0,0,1.000,0.810,0.803,-90.00,180.00,180.00,OPEN,0
656275.658,0,0,0,1.000,0.977,0.574,-90.00,180.00,180.00,OPEN,0
656275.709,0,0,0,1.000,0.949,0.637,-90.00,180.00,180.00,OPEN,0
656275.759,0,0,0,1.000,0.778,0.794,-90.00,180.00,180.00,OPEN,0
656275.811,0,0,0,1.000,0.995,0.992,-90.00,180.00,180.00,OPEN,0
656275.857,0,0,0,1.000,1.000,1.000,-90.00,180.00,180.00,OPEN,0
656275.908,0,0,0,1.000,1.000,1.000,-90.00,180.00,180.00,OPEN,0
656275.954,0,0,0,1.000,1.000,1.000,-90.00,180.00,180.00,OPEN,0
656276.006,0,0,0,1.000,1.000,1.000,-90.00,180.00,180.00,OPEN,0
656276.056,0,0,0,1.000,1.000,1.000,-90.00,180.00,180.00,OPEN,0
656276.105,0,0,0,1.000,1.000,1.000,-90.00,180.00,180.00,OPEN,0
656276.156,0,0,0,1.000,1.000,1.000,-90.00,180.00,180.00,OPEN,0
656276.205,0,0,0,1.000,1.000,0.956,-90.00,180.00,180.00,OPEN,0
656276.254,0,0,0,1.000,1.000,0.562,-90.00,180.00,180.00,OPEN,0
656276.305,0,0,0,1.000,1.000,1.000,-90.00,180.00,180.00,OPEN,0
656276.358,0,0,0,1.000,1.000,1.000,-90.00,180.00,180.00,OPEN,0
656276.407,0,0,0,1.000,1.000,1.000,-90.00,180.00,180.00,OPEN,0
656276.454,0,0,0,1.000,1.000,1.000,-90.00,180.00,180.00,OPEN,0
656276.504,0,0,0,1.000,1.000,1.000,-90.00,180.00,180.00,OPEN,0
656276.554,0,0,0,1.000,1.000,1.000,-90.00,180.00,180.00,OPEN,0
656276.606,0,0,0,1.000,1.000,1.000,-90.00,180.00,180.00,OPEN,0
656276.654,0,0,0,1.000,1.000,1.000,-90.00,180.00,180.00,OPEN,0
656276.704,0,0,0,1.000,1.000,1.000,-90.00,180.00,180.00,OPEN,0
656276.754,0,0,0,1.000,1.000,1.000,-90.00,180.00,180.00,OPEN,0
656276.807,0,0,0,1.000,1.000,1.000,-90.00,180.00,180.00,OPEN,0
656276.854,0,0,0,1.000,1.000,1.000,-90.00,180.00,180.00,OPEN,0
656276.905,0,0,0,1.000,1.000,1.000,-90.00,180.00,180.00,OPEN,0
656276.954,0,0,0,1.000,1.000,1.000,-90.00,180.00,180.00,OPEN,0
656277.005,0,0,0,1.000,1.000,1.000,-90.00,180.00,180.00,OPEN,0
656277.054,0,0,0,1.000,1.000,1.000,-90.00,180.00,180.00,OPEN,0
656277.104,0,0,0,1.000,1.000,1.000,-90.00,180.00,180.00,OPEN,0
656277.154,0,0,0,1.000,0.999,1.000,-90.00,180.00,180.00,OPEN,0
656277.204,0,0,0,1.000,0.847,0.986,-90.00,180.00,180.00,OPEN,0
656277.254,0,0,0,1.000,1.000,0.759,-90.00,180.00,180.00,OPEN,0
656277.304,0,0,0,1.000,1.000,0.965,-90.00,180.00,180.00,OPEN,0
656277.354,0,0,0,1.000,1.000,0.994,-90.00,180.00,180.00,OPEN,0
656277.405,0,0,0,1.000,1.000,0.994,-90.00,180.00,180.00,OPEN,0
656277.454,0,0,0,1.000,1.000,0.993,-90.00,180.00,180.00,OPEN,0
656277.504,0,0,0,1.000,1.000,0.991,-90.00,180.00,180.00,OPEN,0
656277.554,0,0,0,1.000,1.000,0.987,-90.00,180.00,180.00,OPEN,0
656277.604,0,0,0,1.000,1.000,0.991,-90.00,180.00,180.00,OPEN,0
656277.655,0,0,1,1.000,1.000,0.995,0.00,180.00,180.00,OPEN,1
656277.704,0,0,1,1.000,1.000,0.993,0.00,180.00,180.00,OPEN,0
656277.754,0,0,1,1.000,1.000,0.985,0.00,180.00,180.00,OPEN,0
656277.808,0,0,1,1.000,1.000,0.981,0.00,180.00,180.00,OPEN,0
656277.854,0,0,1,1.000,1.000,0.991,0.00,180.00,180.00,OPEN,0
656277.908,0,0,1,1.000,1.000,0.989,0.00,180.00,180.00,OPEN,0
656277.953,0,0,1,1.000,1.000,0.980,0.00,180.00,180.00,OPEN,0
656278.007,0,0,1,1.000,1.000,0.959,0.00,180.00,180.00,OPEN,0
656278.057,0,0,1,1.000,1.000,0.587,0.00,180.00,180.00,OPEN,0
656278.104,0,0,1,1.000,1.000,0.505,0.00,180.00,180.00,OPEN,0
656278.154,0,0,1,1.000,1.000,0.514,0.00,180.00,180.00,OPEN,0
656278.205,0,0,1,1.000,1.000,0.504,0.00,180.00,180.00,OPEN,0
656278.253,0,0,1,1.000,1.000,0.527,0.00,180.00,180.00,OPEN,0
656278.304,0,0,1,1.000,1.000,0.761,0.00,180.00,180.00,OPEN,0
656278.354,0,0,1,1.000,1.000,0.892,0.00,180.00,180.00,OPEN,0
656278.404,0,0,1,1.000,1.000,0.929,0.00,180.00,180.00,OPEN,0
656278.480,0,0,1,1.000,1.000,0.940,0.00,180.00,180.00,OPEN,0
656278.511,0,0,1,1.000,1.000,0.913,0.00,180.00,180.00,OPEN,0
656278.558,0,0,1,1.000,1.000,0.912,0.00,180.00,180.00,OPEN,0
656278.604,0,0,1,1.000,1.000,0.848,0.00,180.00,180.00,OPEN,0
656278.654,0,0,1,1.000,1.000,0.874,0.00,180.00,180.00,OPEN,0
656278.704,0,0,1,1.000,1.000,0.876,0.00,180.00,180.00,OPEN,0
656278.754,0,0,1,1.000,1.000,0.909,0.00,180.00,180.00,OPEN,0
656278.807,0,0,1,1.000,1.000,0.925,0.00,180.00,180.00,OPEN,0
656278.855,0,0,1,1.000,1.000,0.970,0.00,180.00,180.00,OPEN,0
656278.906,0,0,1,1.000,1.000,0.980,0.00,180.00,180.00,OPEN,0
656278.956,0,0,1,1.000,1.000,0.982,0.00,180.00,180.00,OPEN,0
656279.004,0,0,1,1.000,1.000,0.990,0.00,180.00,180.00,OPEN,0
656279.057,0,0,1,1.000,1.000,0.993,0.00,180.00,180.00,OPEN,0
656279.104,0,0,1,1.000,1.000,0.991,0.00,180.00,180.00,OPEN,0
656279.156,0,0,1,1.000,1.000,0.993,0.00,180.00,180.00,OPEN,0
656279.204,0,0,1,1.000,1.000,0.995,0.00,180.00,180.00,OPEN,0
656279.254,0,0,1,1.000,1.000,0.995,0.00,180.00,180.00,OPEN,0
656279.304,0,0,1,1.000,1.000,0.996,0.00,180.00,180.00,OPEN,0
656279.359,0,0,1,1.000,1.000,0.997,0.00,180.00,180.00,OPEN,0
656279.413,0,0,1,1.000,1.000,0.988,0.00,180.00,180.00,OPEN,0
656279.454,0,0,1,1.000,1.000,0.949,0.00,180.00,180.00,OPEN,0
656279.504,0,0,1,1.000,1.000,0.769,0.00,180.00,180.00,OPEN,0
656279.554,0,0,1,1.000,1.000,0.682,0.00,180.00,180.00,OPEN,0
656279.607,0,0,1,1.000,1.000,0.598,0.00,180.00,180.00,OPEN,0
656279.655,0,0,1,1.000,1.000,0.619,0.00,180.00,180.00,OPEN,0
656279.704,0,0,1,1.000,1.000,0.518,0.00,180.00,180.00,OPEN,0
656279.756,0,0,1,1.000,1.000,0.527,0.00,180.00,180.00,OPEN,0
656279.805,0,0,1,1.000,1.000,0.560,0.00,180.00,180.00,OPEN,0
656279.854,0,0,1,1.000,1.000,0.534,0.00,180.00,180.00,OPEN,0
656279.910,0,0,1,1.000,1.000,0.687,0.00,180.00,180.00,OPEN,0
656279.961,0,0,1,1.000,1.000,0.702,0.00,180.00,180.00,OPEN,0
656280.011,0,0,1,1.000,1.000,0.818,0.00,180.00,180.00,OPEN,0
656280.064,0,0,1,1.000,1.000,0.739,0.00,180.00,180.00,OPEN,0
656280.109,0,0,1,1.000,1.000,0.771,0.00,180.00,180.00,OPEN,0
656280.157,0,0,1,1.000,1.000,0.750,0.00,180.00,180.00,OPEN,0
656280.205,0,0,1,1.000,1.000,0.721,0.00,180.00,180.00,OPEN,0
656280.254,0,0,1,1.000,1.000,0.617,0.00,180.00,180.00,OPEN,0
656280.304,0,0,1,1.000,1.000,0.580,0.00,180.00,180.00,OPEN,0
656280.354,0,0,1,1.000,1.000,0.666,0.00,180.00,180.00,OPEN,0
656280.404,0,0,1,1.000,1.000,0.615,0.00,180.00,180.00,OPEN,0
656280.457,0,0,1,1.000,1.000,0.527,0.00,180.00,180.00,OPEN,0
656280.508,0,0,1,1.000,1.000,0.607,0.00,180.00,180.00,OPEN,0
656280.554,0,0,1,1.000,1.000,0.608,0.00,180.00,180.00,OPEN,0
656280.604,0,0,1,1.000,1.000,0.708,0.00,180.00,180.00,OPEN,0
656280.654,0,0,1,1.000,1.000,0.855,0.00,180.00,180.00,OPEN,0
656280.704,0,0,1,1.000,1.000,0.816,0.00,180.00,180.00,OPEN,0
656280.754,0,0,1,1.000,1.000,0.858,0.00,180.00,180.00,OPEN,0
656280.804,0,0,1,1.000,1.000,0.850,0.00,180.00,180.00,OPEN,0
656280.855,0,0,1,1.000,1.000,0.653,0.00,180.00,180.00,OPEN,0
656280.909,0,0,1,1.000,1.000,0.612,0.00,180.00,180.00,OPEN,0
656280.962,0,0,1,1.000,1.000,0.638,0.00,180.00,180.00,OPEN,0
656281.010,0,0,1,1.000,1.000,0.707,0.00,180.00,180.00,OPEN,0
656281.057,0,0,1,1.000,1.000,0.766,0.00,180.00,180.00,OPEN,0
656281.105,0,0,1,1.000,1.000,0.682,0.00,180.00,180.00,OPEN,0
656281.154,0,0,1,1.000,1.000,0.505,0.00,180.00,180.00,OPEN,0
656281.208,0,0,1,1.000,1.000,0.640,0.00,180.00,180.00,OPEN,0
656281.257,0,0,1,1.000,1.000,0.733,0.00,180.00,180.00,OPEN,0
656281.304,0,0,1,1.000,1.000,1.000,0.00,180.00,180.00,OPEN,0
656281.354,0,0,1,1.000,1.000,1.000,0.00,180.00,180.00,OPEN,0
656281.407,0,0,1,1.000,1.000,1.000,0.00,180.00,180.00,OPEN,0
656281.455,0,0,1,1.000,1.000,1.000,0.00,180.00,180.00,OPEN,0
656281.505,0,0,1,1.000,1.000,1.000,0.00,180.00,180.00,OPEN,0
656281.554,0,0,1,1.000,1.000,1.000,0.00,180.00,180.00,OPEN,0
656281.604,0,0,1,1.000,1.000,1.000,0.00,180.00,180.00,OPEN,0
656281.654,0,0,1,1.000,1.000,1.000,0.00,180.00,180.00,OPEN,0
656281.704,0,0,1,1.000,1.000,1.000,0.00,180.00,180.00,OPEN,0
656281.754,0,0,1,1.000,1.000,1.000,0.00,180.00,180.00,OPEN,0
656281.804,0,0,1,0.984,1.000,1.000,0.00,180.00,180.00,OPEN,0
656281.858,0,0,1,0.985,1.000,1.000,0.00,180.00,180.00,OPEN,0
656281.905,0,0,1,0.968,1.000,1.000,0.00,180.00,180.00,OPEN,0
656281.954,0,0,1,0.966,1.000,1.000,0.00,180.00,180.00,OPEN,0
656282.007,0,0,1,0.962,1.000,1.000,0.00,180.00,180.00,OPEN,0
656282.054,0,0,0,0.957,1.000,1.000,-90.00,180.00,180.00,OPEN,1
656282.107,0,0,0,0.937,1.000,1.000,-90.00,180.00,180.00,OPEN,0
656282.155,0,0,0,0.984,1.000,1.000,-90.00,180.00,180.00,OPEN,0
656282.204,0,0,0,0.999,1.000,1.000,-90.00,180.00,180.00,OPEN,0
656282.255,0,0,0,1.000,1.000,1.000,-90.00,180.00,180.00,OPEN,0
656282.309,0,0,0,1.000,0.985,0.999,-90.00,180.00,180.00,OPEN,0
656282.354,0,0,0,1.000,1.000,1.000,-90.00,180.00,180.00,OPEN,0
656282.411,0,0,0,1.000,1.000,1.000,-90.00,180.00,180.00,OPEN,0
656282.453,0,0,0,1.000,0.997,1.000,-90.00,180.00,180.00,OPEN,0
656282.504,2,0,0,1.000,1.000,1.000,-90.00,180.00,175.50,OPEN,1
656282.554,2,0,0,1.000,1.000,1.000,-90.00,180.00,175.50,OPEN,0
656282.605,2,0,0,1.000,1.000,1.000,-90.00,180.00,171.00,OPEN,1
656282.656,2,1,1,1.000,1.000,1.000,0.00,90.00,171.00,OPEN,0
656282.704,2,1,1,1.000,0.996,0.988,0.00,90.00,171.00,OPEN,0
656282.754,2,1,1,1.000,0.999,0.980,0.00,90.00,166.50,OPEN,1
656282.804,2,1,1,1.000,0.999,0.977,0.00,90.00,166.50,OPEN,0
656282.854,2,1,1,1.000,0.998,0.962,0.00,90.00,162.00,OPEN,1
656282.905,2,1,1,1.000,0.958,0.800,0.00,90.00,162.00,OPEN,0
656282.956,2,1,1,1.000,1.000,0.998,0.00,90.00,157.50,OPEN,1
656283.004,2,1,1,1.000,1.000,1.000,0.00,90.00,157.50,OPEN,0
656283.054,2,1,1,1.000,1.000,1.000,0.00,90.00,157.50,OPEN,0
656283.103,2,1,1,1.000,1.000,1.000,0.00,90.00,153.00,OPEN,1
656283.154,2,1,1,1.000,1.000,1.000,0.00,90.00,153.00,OPEN,0
656283.205,2,1,1,1.000,1.000,1.000,0.00,90.00,148.50,OPEN,1
656283.254,2,1,1,1.000,1.000,1.000,0.00,90.00,148.50,OPEN,0
656283.304,2,1,1,1.000,1.000,1.000,0.00,90.00,148.50,OPEN,0
656283.354,2,1,1,1.000,1.000,1.000,0.00,90.00,144.00,OPEN,1
656283.404,2,1,1,1.000,1.000,1.000,0.00,90.00,144.00,OPEN,0
656283.454,2,1,1,1.000,1.000,1.000,0.00,90.00,144.00,OPEN,0
656283.504,2,1,1,1.000,1.000,1.000,0.00,90.00,139.50,OPEN,1
656283.553,2,1,1,1.000,1.000,1.000,0.00,90.00,139.50,OPEN,0
656283.604,2,1,1,1.000,1.000,1.000,0.00,90.00,135.00,OPEN,1
656283.655,2,1,1,1.000,1.000,1.000,0.00,90.00,135.00,OPEN,0
656283.704,2,1,1,1.000,1.000,1.000,0.00,90.00,135.00,OPEN,0
656283.754,2,1,1,1.000,1.000,1.000,0.00,90.00,130.50,OPEN,1
656283.804,2,1,1,1.000,1.000,1.000,0.00,90.00,130.50,OPEN,0
656283.854,2,0,0,1.000,1.000,1.000,-90.00,180.00,126.00,OPEN,1
656283.904,2,0,0,1.000,1.000,1.000,-90.00,180.00,126.00,OPEN,0
656283.954,2,0,0,1.000,1.000,1.000,-90.00,180.00,126.00,OPEN,0
656284.006,2,0,0,1.000,1.000,1.000,-90.00,180.00,121.50,OPEN,1
656284.054,2,0,0,1.000,1.000,1.000,-90.00,180.00,121.50,OPEN,0
656284.106,2,0,0,1.000,1.000,1.000,-90.00,180.00,117.00,OPEN,1
656284.154,2,0,0,1.000,1.000,1.000,-90.00,180.00,117.00,OPEN,0
656284.204,2,0,0,1.000,1.000,1.000,-90.00,180.00,117.00,OPEN,0
656284.254,2,0,0,1.000,1.000,1.000,-90.00,180.00,112.50,OPEN,1
656284.304,2,0,0,1.000,1.000,1.000,-90.00,180.00,112.50,OPEN,0
656284.356,2,0,0,1.000,1.000,1.000,-90.00,180.00,108.00,OPEN,1
656284.408,2,0,0,1.000,1.000,1.000,-90.00,180.00,108.00,OPEN,0
656284.454,2,0,0,1.000,1.000,1.000,-90.00,180.00,108.00,OPEN,0
656284.505,2,0,0,1.000,1.000,1.000,-90.00,180.00,103.50,OPEN,1
656284.555,2,0,0,1.000,1.000,1.000,-90.00,180.00,103.50,OPEN,0
656284.605,2,0,0,1.000,1.000,1.000,-90.00,180.00,99.00,OPEN,1
656284.654,2,0,0,1.000,1.000,1.000,-90.00,180.00,99.00,OPEN,0
656284.704,2,0,0,1.000,1.000,1.000,-90.00,180.00,99.00,OPEN,0
656284.755,2,0,0,1.000,1.000,1.000,-90.00,180.00,94.50,OPEN,1
656284.804,2,0,0,1.000,1.000,1.000,-90.00,180.00,94.50,OPEN,0
656284.858,2,0,0,1.000,1.000,1.000,-90.00,180.00,90.00,OPEN,1
656284.907,2,0,0,1.000,1.000,1.000,-90.00,180.00,90.00,OPEN,0
656284.954,2,0,0,1.000,1.000,1.000,-90.00,180.00,90.00,OPEN,0
656285.003,2,0,0,1.000,1.000,1.000,-90.00,180.00,85.50,OPEN,1
656285.053,2,0,0,1.000,1.000,1.000,-90.00,180.00,85.50,OPEN,0
656285.105,2,0,0,1.000,1.000,1.000,-90.00,180.00,81.00,OPEN,1
656285.157,2,0,0,1.000,1.000,1.000,-90.00,180.00,81.00,OPEN,0
656285.204,2,0,0,1.000,1.000,1.000,-90.00,180.00,81.00,OPEN,0
656285.254,2,0,0,1.000,1.000,1.000,-90.00,180.00,76.50,OPEN,1
656285.303,2,0,0,1.000,1.000,1.000,-90.00,180.00,76.50,OPEN,0
656285.354,2,0,0,1.000,1.000,1.000,-90.00,180.00,76.50,OPEN,0
656285.407,2,0,0,1.000,1.000,1.000,-90.00,180.00,72.00,OPEN,1
656285.454,2,0,0,1.000,1.000,1.000,-90.00,180.00,72.00,OPEN,0
656285.507,2,0,0,1.000,1.000,1.000,-90.00,180.00,72.00,OPEN,0
656285.553,2,0,0,1.000,1.000,1.000,-90.00,180.00,67.50,OPEN,1
656285.604,2,0,0,1.000,1.000,1.000,-90.00,180.00,67.50,OPEN,0
656285.656,2,0,0,1.000,1.000,1.000,-90.00,180.00,63.00,OPEN,1
656285.704,2,0,0,1.000,1.000,1.000,-90.00,180.00,63.00,OPEN,0
656285.754,2,0,0,1.000,1.000,1.000,-90.00,180.00,63.00,OPEN,0
656285.804,2,0,0,1.000,1.000,1.000,-90.00,180.00,58.50,OPEN,1
656285.854,2,0,0,1.000,1.000,1.000,-90.00,180.00,58.50,OPEN,0
656285.906,2,0,0,1.000,1.000,1.000,-90.00,180.00,54.00,OPEN,1
656285.953,2,0,0,1.000,1.000,1.000,-90.00,180.00,54.00,OPEN,0
656286.004,2,0,0,1.000,1.000,1.000,-90.00,180.00,54.00,OPEN,0
656286.054,2,0,0,1.000,1.000,1.000,-90.00,180.00,49.50,OPEN,1
656286.108,2,0,0,1.000,1.000,1.000,-90.00,180.00,49.50,OPEN,0
656286.155,2,0,0,1.000,1.000,1.000,-90.00,180.00,45.00,OPEN,1
656286.204,2,0,0,1.000,1.000,1.000,-90.00,180.00,45.00,OPEN,0
656286.255,2,0,0,1.000,1.000,1.000,-90.00,180.00,45.00,OPEN,0
656286.304,2,0,0,1.000,1.000,1.000,-90.00,180.00,40.50,OPEN,1
656286.354,2,0,0,1.000,1.000,1.000,-90.00,180.00,40.50,OPEN,0
656286.405,2,0,0,1.000,1.000,1.000,-90.00,180.00,36.00,OPEN,1
656286.454,2,0,0,1.000,1.000,1.000,-90.00,180.00,36.00,OPEN,0
656286.503,2,0,0,1.000,1.000,1.000,-90.00,180.00,36.00,OPEN,0
656286.554,2,0,0,1.000,1.000,1.000,-90.00,180.00,31.50,OPEN,1
656286.604,2,0,0,1.000,1.000,1.000,-90.00,180.00,31.50,OPEN,0
656286.660,2,0,0,1.000,1.000,1.000,-90.00,180.00,27.00,OPEN,1
656286.707,2,0,0,1.000,1.000,1.000,-90.00,180.00,27.00,OPEN,0
656286.754,2,0,0,1.000,1.000,1.000,-90.00,180.00,27.00,OPEN,0
656286.803,2,0,0,1.000,1.000,1.000,-90.00,180.00,22.50,OPEN,1
656286.856,2,0,0,1.000,1.000,1.000,-90.00,180.00,22.50,OPEN,0
656286.904,2,0,0,1.000,1.000,1.000,-90.00,180.00,18.00,OPEN,1
656286.955,2,0,0,1.000,1.000,1.000,-90.00,180.00,18.00,OPEN,0
656287.004,2,0,0,1.000,1.000,1.000,-90.00,180.00,18.00,OPEN,0
656287.057,2,0,0,1.000,1.000,1.000,-90.00,180.00,13.50,OPEN,1
656287.104,2,0,0,1.000,1.000,1.000,-90.00,180.00,13.50,OPEN,0
656287.158,2,0,0,1.000,1.000,1.000,-90.00,180.00,9.00,OPEN,1
656287.205,2,0,0,1.000,1.000,1.000,-90.00,180.00,9.00,OPEN,0
656287.254,2,0,0,1.000,1.000,1.000,-90.00,180.00,9.00,OPEN,0
656287.304,2,0,0,1.000,1.000,1.000,-90.00,180.00,4.50,OPEN,1
656287.354,2,0,0,1.000,1.000,1.000,-90.00,180.00,4.50,OPEN,0
656287.404,2,0,0,1.000,1.000,1.000,-90.00,180.00,4.50,OPEN,0
656287.454,2,0,0,1.000,1.000,1.000,-90.00,180.00,0.00,OPEN,1
656287.504,2,0,0,1.000,1.000,1.000,-90.00,180.00,0.00,OPEN,0
656287.554,2,0,0,1.000,1.000,1.000,-90.00,180.00,-4.50,OPEN,1
656287.604,2,0,0,1.000,1.000,1.000,-90.00,180.00,-4.50,OPEN,0
656287.654,2,0,0,1.000,1.000,1.000,-90.00,180.00,-9.00,OPEN,1
656287.704,2,0,0,1.000,1.000,1.000,-90.00,180.00,-9.00,OPEN,0
656287.754,2,0,0,1.000,1.000,1.000,-90.00,180.00,-9.00,OPEN,0
656287.804,2,0,0,1.000,1.000,1.000,-90.00,180.00,-13.50,OPEN,1
656287.854,2,0,0,1.000,1.000,1.000,-90.00,180.00,-13.50,OPEN,0
656287.904,2,0,0,1.000,1.000,1.000,-90.00,180.00,-13.50,OPEN,0
656287.954,2,0,0,1.000,1.000,1.000,-90.00,180.00,-18.00,OPEN,1
656288.004,2,0,0,1.000,1.000,1.000,-90.00,180.00,-18.00,OPEN,0
656288.055,2,0,0,0.999,1.000,1.000,-90.00,180.00,-22.50,OPEN,1
656288.104,2,0,0,0.998,1.000,1.000,-90.00,180.00,-22.50,OPEN,0
656288.154,2,0,0,0.994,1.000,1.000,-90.00,180.00,-22.50,OPEN,0
656288.204,2,0,0,0.963,1.000,1.000,-90.00,180.00,-27.00,OPEN,1
656288.254,2,0,0,0.904,1.000,1.000,-90.00,180.00,-27.00,OPEN,0
656288.304,2,0,0,0.723,1.000,1.000,-90.00,180.00,-27.00,OPEN,0
656288.355,2,0,0,0.684,1.000,1.000,-90.00,180.00,-31.50,OPEN,1
656288.404,2,0,0,0.927,1.000,1.000,-90.00,180.00,-31.50,OPEN,0
656288.454,2,0,0,0.966,1.000,1.000,-90.00,180.00,-31.50,OPEN,0
656288.504,2,0,0,0.999,1.000,1.000,-90.00,180.00,-36.00,OPEN,1
656288.554,2,0,0,1.000,1.000,1.000,-90.00,180.00,-36.00,OPEN,0
656288.604,2,0,0,1.000,1.000,1.000,-90.00,180.00,-40.50,OPEN,1
656288.654,2,0,0,1.000,1.000,1.000,-90.00,180.00,-40.50,OPEN,0
656288.705,2,0,0,1.000,1.000,1.000,-90.00,180.00,-45.00,OPEN,1
656288.754,0,0,0,1.000,1.000,1.000,-90.00,180.00,-45.00,OPEN,0
656288.804,0,0,0,1.000,1.000,1.000,-90.00,180.00,-45.00,OPEN,0
656288.854,0,0,0,1.000,1.000,1.000,-90.00,180.00,-45.00,OPEN,0
656288.904,0,0,0,1.000,1.000,1.000,-90.00,180.00,-45.00,OPEN,0
656288.955,0,0,0,1.000,1.000,1.000,-90.00,180.00,-45.00,OPEN,0
656289.005,0,0,0,1.000,1.000,1.000,-90.00,180.00,-45.00,OPEN,0
656289.054,0,0,0,1.000,1.000,1.000,-90.00,180.00,-45.00,OPEN,0
656289.104,0,0,0,1.000,1.000,1.000,-90.00,180.00,-45.00,OPEN,0
656289.153,0,0,0,1.000,1.000,1.000,-90.00,180.00,-45.00,OPEN,0
656289.204,0,0,0,1.000,1.000,1.000,-90.00,180.00,-45.00,OPEN,0
656289.254,0,0,0,1.000,1.000,1.000,-90.00,180.00,-45.00,OPEN,0
656289.304,0,0,0,1.000,1.000,1.000,-90.00,180.00,-45.00,OPEN,0
656289.354,0,0,0,1.000,1.000,1.000,-90.00,180.00,-45.00,OPEN,0
656289.404,0,0,0,1.000,1.000,1.000,-90.00,180.00,-45.00,OPEN,0
656289.454,0,0,0,1.000,1.000,1.000,-90.00,180.00,-45.00,OPEN,0
656289.504,0,0,0,1.000,1.000,1.000,-90.00,180.00,-45.00,OPEN,0
656289.554,0,0,0,1.000,1.000,1.000,-90.00,180.00,-45.00,OPEN,0
656289.604,0,0,0,1.000,1.000,1.000,-90.00,180.00,-45.00,OPEN,0
656289.654,0,0,0,1.000,1.000,1.000,-90.00,180.00,-45.00,OPEN,0
656289.706,0,0,0,1.000,1.000,1.000,-90.00,180.00,-45.00,OPEN,0
656289.754,0,0,0,1.000,1.000,1.000,-90.00,180.00,-45.00,OPEN,0
656289.804,0,0,0,1.000,1.000,1.000,-90.00,180.00,-45.00,OPEN,0
656289.854,0,0,0,1.000,1.000,1.000,-90.00,180.00,-45.00,OPEN,0
656289.904,0,0,0,1.000,1.000,1.000,-90.00,180.00,-45.00,OPEN,0
656289.953,0,0,0,1.000,1.000,1.000,-90.00,180.00,-45.00,OPEN,0
656290.004,0,0,0,1.000,1.000,1.000,-90.00,180.00,-45.00,OPEN,0
656290.074,0,0,0,1.000,1.000,1.000,-90.00,180.00,-45.00,OPEN,0
656290.105,0,0,0,1.000,1.000,1.000,-90.00,180.00,-45.00,OPEN,0
656290.154,0,0,0,1.000,1.000,1.000,-90.00,180.00,-45.00,OPEN,0
656290.204,0,0,0,1.000,1.000,1.000,-90.00,180.00,-45.00,OPEN,0
656290.254,0,0,0,1.000,1.000,1.000,-90.00,180.00,-45.00,OPEN,0
656290.304,0,0,0,1.000,1.000,1.000,-90.00,180.00,-45.00,OPEN,0
656290.353,0,0,0,1.000,1.000,1.000,-90.00,180.00,-45.00,OPEN,0
656290.404,0,0,0,1.000,1.000,1.000,-90.00,180.00,-45.00,OPEN,0
656290.454,0,0,0,1.000,1.000,1.000,-90.00,180.00,-45.00,OPEN,0
656290.504,0,0,0,1.000,1.000,1.000,-90.00,180.00,-45.00,OPEN,0
656290.554,0,0,0,1.000,1.000,1.000,-90.00,180.00,-45.00,OPEN,0
656290.604,0,0,0,1.000,1.000,1.000,-90.00,180.00,-45.00,OPEN,0
656290.654,0,0,0,1.000,1.000,1.000,-90.00,180.00,-45.00,OPEN,0
656290.704,0,0,0,1.000,1.000,1.000,-90.00,180.00,-45.00,OPEN,0
656290.754,0,0,0,1.000,1.000,1.000,-90.00,180.00,-45.00,OPEN,0
656290.805,0,0,0,1.000,1.000,1.000,-90.00,180.00,-45.00,OPEN,0
656290.854,0,0,0,1.000,1.000,1.000,-90.00,180.00,-45.00,OPEN,0
656290.904,0,0,0,1.000,1.000,1.000,-90.00,180.00,-45.00,OPEN,0
656290.954,0,0,0,1.000,1.000,1.000,-90.00,180.00,-45.00,OPEN,0
656291.004,0,0,0,1.000,1.000,1.000,-90.00,180.00,-45.00,OPEN,0
656291.054,0,0,0,1.000,1.000,1.000,-90.00,180.00,-45.00,OPEN,0
656291.104,0,0,0,1.000,1.000,1.000,-90.00,180.00,-45.00,OPEN,0
656291.153,0,0,0,1.000,1.000,1.000,-90.00,180.00,-45.00,OPEN,0
656291.204,0,0,0,1.000,1.000,1.000,-90.00,180.00,-45.00,OPEN,0
656291.254,0,0,0,1.000,1.000,1.000,-90.00,180.00,-45.00,OPEN,0
656291.305,0,0,0,1.000,1.000,1.000,-90.00,180.00,-45.00,OPEN,0
656291.355,0,0,0,1.000,1.000,1.000,-90.00,180.00,-45.00,OPEN,0
656291.406,0,0,0,1.000,1.000,1.000,-90.00,180.00,-45.00,OPEN,0
656291.454,0,0,0,1.000,1.000,1.000,-90.00,180.00,-45.00,OPEN,0
656291.505,0,0,0,1.000,1.000,1.000,-90.00,180.00,-45.00,OPEN,0
656291.554,0,0,0,1.000,1.000,1.000,-90.00,180.00,-45.00,OPEN,0
656291.604,0,0,0,1.000,1.000,1.000,-90.00,180.00,-45.00,OPEN,0
656291.654,0,0,0,1.000,1.000,1.000,-90.00,180.00,-45.00,OPEN,0
656291.704,0,0,0,1.000,1.000,1.000,-90.00,180.00,-45.00,OPEN,0
656291.755,0,0,0,1.000,1.000,1.000,-90.00,180.00,-45.00,OPEN,0
656291.804,0,0,0,1.000,1.000,1.000,-90.00,180.00,-45.00,OPEN,0
656291.855,0,0,0,1.000,1.000,1.000,-90.00,180.00,-45.00,OPEN,0
656291.904,0,0,0,1.000,1.000,1.000,-90.00,180.00,-45.00,OPEN,0
656291.954,0,0,0,1.000,1.000,1.000,-90.00,180.00,-45.00,OPEN,0
656292.004,0,0,0,1.000,1.000,1.000,-90.00,180.00,-45.00,OPEN,0
656292.054,0,0,0,1.000,1.000,1.000,-90.00,180.00,-45.00,OPEN,0
656292.104,0,0,0,1.000,1.000,1.000,-90.00,180.00,-45.00,OPEN,0
656292.153,0,0,0,1.000,1.000,1.000,-90.00,180.00,-45.00,OPEN,0
656292.204,0,0,0,1.000,1.000,1.000,-90.00,180.00,-45.00,OPEN,0
656292.254,0,0,0,1.000,1.000,1.000,-90.00,180.00,-45.00,OPEN,0
656292.304,0,0,0,1.000,1.000,1.000,-90.00,180.00,-45.00,OPEN,0
656292.354,0,0,0,1.000,1.000,1.000,-90.00,180.00,-45.00,OPEN,0
656292.404,0,0,0,1.000,1.000,1.000,-90.00,180.00,-45.00,OPEN,0
656292.454,0,0,0,1.000,1.000,1.000,-90.00,180.00,-45.00,OPEN,0
656292.504,0,0,0,1.000,1.000,1.000,-90.00,180.00,-45.00,OPEN,0
656292.554,0,0,0,1.000,1.000,1.000,-90.00,180.00,-45.00,OPEN,0
656292.604,0,0,0,1.000,1.000,1.000,-90.00,180.00,-45.00,OPEN,0
656292.654,0,0,0,1.000,1.000,1.000,-90.00,180.00,-45.00,OPEN,0
656292.704,0,0,0,1.000,1.000,1.000,-90.00,180.00,-45.00,OPEN,0
656292.754,0,0,0,1.000,1.000,1.000,-90.00,180.00,-45.00,OPEN,0
656292.805,0,0,0,1.000,1.000,1.000,-90.00,180.00,-45.00,OPEN,0
656292.855,0,0,0,1.000,1.000,1.000,-90.00,180.00,-45.00,OPEN,0
656292.904,0,0,0,1.000,1.000,1.000,-90.00,180.00,-45.00,OPEN,0
656292.954,0,0,0,1.000,1.000,1.000,-90.00,180.00,-45.00,OPEN,0
656293.004,0,0,0,1.000,1.000,1.000,-90.00,180.00,-45.00,OPEN,0
656293.054,0,0,0,1.000,1.000,1.000,-90.00,180.00,-45.00,OPEN,0
656293.104,0,0,0,1.000,1.000,1.000,-90.00,180.00,-45.00,OPEN,0
656293.154,0,0,0,1.000,1.000,1.000,-90.00,180.00,-45.00,OPEN,0
656293.204,0,0,0,1.000,1.000,1.000,-90.00,180.00,-45.00,OPEN,0
656293.254,0,0,0,1.000,1.000,1.000,-90.00,180.00,-45.00,OPEN,0
656293.304,0,0,0,1.000,1.000,1.000,-90.00,180.00,-45.00,OPEN,0
656293.354,0,0,0,1.000,1.000,1.000,-90.00,180.00,-45.00,OPEN,0
656293.405,0,0,0,1.000,1.000,1.000,-90.00,180.00,-45.00,OPEN,0
656293.454,0,0,0,1.000,1.000,1.000,-90.00,180.00,-45.00,OPEN,0
656293.504,0,0,0,1.000,1.000,1.000,-90.00,180.00,-45.00,OPEN,0
656293.554,0,0,0,1.000,1.000,1.000,-90.00,180.00,-45.00,OPEN,0
656293.604,0,0,0,1.000,1.000,1.000,-90.00,180.00,-45.00,OPEN,0
656293.654,0,0,0,1.000,1.000,1.000,-90.00,180.00,-45.00,OPEN,0
656293.704,0,0,0,1.000,1.000,1.000,-90.00,180.00,-45.00,OPEN,0
656293.753,0,0,0,1.000,1.000,1.000,-90.00,180.00,-45.00,OPEN,0
656293.804,0,0,0,1.000,1.000,1.000,-90.00,180.00,-45.00,OPEN,0
656293.854,0,0,0,0.999,1.000,1.000,-90.00,180.00,-45.00,OPEN,0
656293.904,0,0,0,0.997,1.000,1.000,-90.00,180.00,-45.00,OPEN,0
656293.954,0,0,0,0.997,1.000,1.000,-90.00,180.00,-45.00,OPEN,0
656294.004,0,0,0,0.991,1.000,1.000,-90.00,180.00,-45.00,OPEN,0
656294.054,0,0,0,0.989,1.000,1.000,-90.00,180.00,-45.00,OPEN,0
656294.104,0,0,0,0.999,1.000,1.000,-90.00,180.00,-45.00,OPEN,0
656294.154,0,0,0,1.000,1.000,1.000,-90.00,180.00,-45.00,OPEN,0
656294.206,0,0,0,1.000,1.000,1.000,-90.00,180.00,-45.00,OPEN,0
656294.254,0,0,0,1.000,1.000,1.000,-90.00,180.00,-45.00,OPEN,0
656294.304,0,0,0,1.000,1.000,1.000,-90.00,180.00,-45.00,OPEN,0
656294.354,0,0,0,1.000,1.000,1.000,-90.00,180.00,-45.00,OPEN,0
656294.404,0,0,0,1.000,1.000,1.000,-90.00,180.00,-45.00,OPEN,0
656294.454,0,0,0,1.000,1.000,1.000,-90.00,180.00,-45.00,OPEN,0
656294.504,0,0,0,1.000,1.000,1.000,-90.00,180.00,-45.00,OPEN,0
656294.554,0,0,0,1.000,1.000,1.000,-90.00,180.00,-45.00,OPEN,0
656294.603,0,0,0,1.000,1.000,1.000,-90.00,180.00,-45.00,OPEN,0
656294.654,0,0,0,1.000,1.000,1.000,-90.00,180.00,-45.00,OPEN,0
656294.705,0,0,0,1.000,1.000,1.000,-90.00,180.00,-45.00,OPEN,0
656294.753,0,0,0,1.000,1.000,1.000,-90.00,180.00,-45.00,OPEN,0
656294.804,0,0,0,1.000,1.000,1.000,-90.00,180.00,-45.00,OPEN,0
656294.855,0,0,0,1.000,1.000,1.000,-90.00,180.00,-45.00,OPEN,0
656294.904,0,0,0,1.000,1.000,1.000,-90.00,180.00,-45.00,OPEN,0
656294.954,0,0,0,1.000,1.000,1.000,-90.00,180.00,-45.00,OPEN,0
656295.004,0,0,0,1.000,1.000,1.000,-90.00,180.00,-45.00,OPEN,0
656295.054,0,0,0,1.000,1.000,1.000,-90.00,180.00,-45.00,OPEN,0
656295.104,0,0,0,1.000,1.000,1.000,-90.00,180.00,-45.00,OPEN,0
656295.154,0,0,0,1.000,1.000,1.000,-90.00,180.00,-45.00,OPEN,0
656295.204,0,0,0,1.000,1.000,1.000,-90.00,180.00,-45.00,OPEN,0
656295.255,0,0,0,1.000,1.000,1.000,-90.00,180.00,-45.00,OPEN,0
656295.304,0,0,0,1.000,1.000,1.000,-90.00,180.00,-45.00,OPEN,0
656295.354,0,0,0,1.000,1.000,1.000,-90.00,180.00,-45.00,OPEN,0
656295.404,0,0,0,1.000,1.000,1.000,-90.00,180.00,-45.00,OPEN,0
656295.454,0,0,0,0.863,1.000,1.000,-90.00,180.00,-45.00,OPEN,0
656295.504,0,0,0,0.956,1.000,1.000,-90.00,180.00,-45.00,OPEN,0
656295.553,0,0,0,0.993,1.000,1.000,-90.00,180.00,-45.00,OPEN,0
656295.604,0,0,0,0.993,1.000,1.000,-90.00,180.00,-45.00,OPEN,0
656295.654,0,0,0,0.970,1.000,1.000,-90.00,180.00,-45.00,OPEN,0
656295.704,0,0,0,0.616,1.000,1.000,-90.00,180.00,-45.00,OPEN,0
656295.754,0,0,0,0.909,1.000,1.000,-90.00,180.00,-45.00,OPEN,0
656295.804,0,0,0,0.990,1.000,1.000,-90.00,180.00,-45.00,OPEN,0
656295.854,0,0,0,0.994,1.000,1.000,-90.00,180.00,-45.00,OPEN,0
656295.904,0,0,0,0.995,1.000,1.000,-90.00,180.00,-45.00,OPEN,0
656295.953,0,0,0,0.996,1.000,1.000,-90.00,180.00,-45.00,OPEN,0
656296.004,0,0,0,0.995,1.000,1.000,-90.00,180.00,-45.00,OPEN,0
656296.054,0,0,0,0.993,1.000,1.000,-90.00,180.00,-45.00,OPEN,0
656296.103,3,0,0,0.990,1.000,1.000,-90.00,180.00,-45.00,CLOSED,0
656296.154,3,0,0,0.985,1.000,1.000,-90.00,180.00,-45.00,CLOSED,0
656296.204,3,0,0,0.983,1.000,1.000,-90.00,180.00,-45.00,CLOSED,0
656296.254,3,0,0,0.985,1.000,1.000,-90.00,180.00,-45.00,CLOSED,0
656296.305,3,0,0,0.989,1.000,1.000,-90.00,180.00,-45.00,CLOSED,0
656296.354,3,0,0,0.995,1.000,1.000,-90.00,180.00,-45.00,CLOSED,0
656296.404,3,0,0,0.997,1.000,1.000,-90.00,180.00,-45.00,CLOSED,0
656296.454,3,0,0,0.999,1.000,1.000,-90.00,180.00,-45.00,CLOSED,0
656296.504,3,0,0,0.999,1.000,1.000,-90.00,180.00,-45.00,CLOSED,0
656296.554,3,0,0,1.000,1.000,1.000,-90.00,180.00,-45.00,CLOSED,0
656296.604,3,0,0,1.000,1.000,1.000,-90.00,180.00,-45.00,CLOSED,0
656296.654,3,0,0,1.000,1.000,1.000,-90.00,180.00,-45.00,CLOSED,0
656296.704,3,0,0,1.000,1.000,1.000,-90.00,180.00,-45.00,CLOSED,0
656296.755,3,0,0,1.000,1.000,1.000,-90.00,180.00,-45.00,CLOSED,0
656296.804,3,0,0,1.000,1.000,1.000,-90.00,180.00,-45.00,CLOSED,0
656296.854,3,0,0,1.000,1.000,1.000,-90.00,180.00,-45.00,CLOSED,0
656296.904,3,0,0,1.000,1.000,1.000,-90.00,180.00,-45.00,CLOSED,0
656296.954,3,0,0,1.000,1.000,1.000,-90.00,180.00,-45.00,CLOSED,0
656297.004,3,0,0,1.000,1.000,1.000,-90.00,180.00,-45.00,CLOSED,0
656297.054,3,0,0,1.000,1.000,1.000,-90.00,180.00,-45.00,CLOSED,0
656297.104,3,0,0,1.000,1.000,1.000,-90.00,180.00,-45.00,CLOSED,0
656297.154,3,0,0,1.000,1.000,1.000,-90.00,180.00,-45.00,CLOSED,0
656297.204,3,0,0,1.000,1.000,1.000,-90.00,180.00,-45.00,CLOSED,0
656297.254,3,0,0,1.000,1.000,1.000,-90.00,180.00,-45.00,CLOSED,0
656297.304,3,0,0,1.000,1.000,1.000,-90.00,180.00,-45.00,CLOSED,0
656297.354,3,0,0,0.999,1.000,1.000,-90.00,180.00,-45.00,CLOSED,0
656297.404,3,0,0,0.997,1.000,1.000,-90.00,180.00,-45.00,CLOSED,0
656297.454,3,0,0,0.992,1.000,1.000,-90.00,180.00,-45.00,CLOSED,0
656297.504,3,0,0,0.987,1.000,1.000,-90.00,180.00,-45.00,CLOSED,0
656297.554,3,0,0,0.985,1.000,1.000,-90.00,180.00,-45.00,CLOSED,0
656297.604,3,0,0,0.989,1.000,1.000,-90.00,180.00,-45.00,CLOSED,0
656297.654,3,0,0,0.993,1.000,1.000,-90.00,180.00,-45.00,CLOSED,0
656297.704,3,0,0,0.996,1.000,1.000,-90.00,180.00,-45.00,CLOSED,0
656297.754,3,0,0,0.997,1.000,1.000,-90.00,180.00,-45.00,CLOSED,0
656297.804,3,0,0,0.998,1.000,1.000,-90.00,180.00,-45.00,CLOSED,0
656297.854,3,0,0,0.998,1.000,1.000,-90.00,180.00,-45.00,CLOSED,0
656297.904,3,0,0,0.999,1.000,1.000,-90.00,180.00,-45.00,CLOSED,0
656297.954,3,0,0,0.999,1.000,1.000,-90.00,180.00,-45.00,CLOSED,0
656298.004,3,0,0,0.999,1.000,1.000,-90.00,180.00,-45.00,CLOSED,0
656298.054,3,0,0,1.000,1.000,1.000,-90.00,180.00,-45.00,CLOSED,0
656298.104,3,0,0,1.000,1.000,1.000,-90.00,180.00,-45.00,CLOSED,0
656298.154,3,0,0,1.000,1.000,1.000,-90.00,180.00,-45.00,CLOSED,0
656298.218,3,0,0,1.000,1.000,1.000,-90.00,180.00,-45.00,CLOSED,0
656298.256,3,0,0,1.000,1.000,1.000,-90.00,180.00,-45.00,CLOSED,0
656298.304,3,0,0,1.000,1.000,1.000,-90.00,180.00,-45.00,CLOSED,0
656298.354,3,0,0,1.000,1.000,1.000,-90.00,180.00,-45.00,CLOSED,0
656298.404,3,0,0,1.000,1.000,1.000,-90.00,180.00,-45.00,CLOSED,0
656298.454,3,0,0,1.000,1.000,1.000,-90.00,180.00,-45.00,CLOSED,0
656298.508,3,0,0,1.000,1.000,1.000,-90.00,180.00,-45.00,CLOSED,0
656298.554,3,0,0,1.000,1.000,1.000,-90.00,180.00,-45.00,CLOSED,0
656298.604,3,0,0,1.000,1.000,1.000,-90.00,180.00,-45.00,CLOSED,0
656298.654,3,0,0,1.000,1.000,1.000,-90.00,180.00,-45.00,CLOSED,0
656298.703,3,0,0,1.000,1.000,1.000,-90.00,180.00,-45.00,CLOSED,0
656298.755,3,0,0,1.000,1.000,1.000,-90.00,180.00,-45.00,CLOSED,0
656298.804,3,0,0,1.000,1.000,1.000,-90.00,180.00,-45.00,CLOSED,0
656298.854,3,0,0,1.000,1.000,1.000,-90.00,180.00,-45.00,CLOSED,0
656298.905,3,0,0,1.000,1.000,1.000,-90.00,180.00,-45.00,CLOSED,0
656298.954,3,0,0,1.000,1.000,1.000,-90.00,180.00,-45.00,CLOSED,0
656299.004,3,0,0,1.000,1.000,1.000,-90.00,180.00,-45.00,CLOSED,0
656299.054,3,0,0,1.000,1.000,1.000,-90.00,180.00,-45.00,CLOSED,0
656299.104,3,0,0,1.000,1.000,1.000,-90.00,180.00,-45.00,CLOSED,0
656299.154,3,0,0,1.000,1.000,1.000,-90.00,180.00,-45.00,CLOSED,0
656299.204,3,0,0,1.000,1.000,1.000,-90.00,180.00,-45.00,CLOSED,0
656299.254,3,0,0,1.000,1.000,1.000,-90.00,180.00,-45.00,CLOSED,0
656299.304,3,0,0,1.000,1.000,1.000,-90.00,180.00,-45.00,CLOSED,0
656299.354,3,0,0,1.000,1.000,1.000,-90.00,180.00,-45.00,CLOSED,0
656299.404,3,0,0,1.000,1.000,1.000,-90.00,180.00,-45.00,CLOSED,0
656299.454,3,0,0,1.000,1.000,1.000,-90.00,180.00,-45.00,CLOSED,0
656299.505,3,0,0,1.000,1.000,1.000,-90.00,180.00,-45.00,CLOSED,0
656299.554,3,0,0,1.000,1.000,1.000,-90.00,180.00,-45.00,CLOSED,0
656299.605,3,0,0,1.000,1.000,1.000,-90.00,180.00,-45.00,CLOSED,0
656299.655,3,0,0,1.000,1.000,1.000,-90.00,180.00,-45.00,CLOSED,0
656299.704,3,0,0,1.000,1.000,1.000,-90.00,180.00,-45.00,CLOSED,0
656299.754,3,0,0,1.000,1.000,1.000,-90.00,180.00,-45.00,CLOSED,0
656299.804,3,0,0,1.000,1.000,1.000,-90.00,180.00,-45.00,CLOSED,0
656299.854,3,0,0,1.000,1.000,1.000,-90.00,180.00,-45.00,CLOSED,0
656299.904,3,0,0,1.000,1.000,1.000,-90.00,180.00,-45.00,CLOSED,0
656299.954,3,0,0,1.000,1.000,1.000,-90.00,180.00,-45.00,CLOSED,0
656300.004,3,0,0,1.000,1.000,1.000,-90.00,180.00,-45.00,CLOSED,0
656300.054,3,0,0,1.000,1.000,1.000,-90.00,180.00,-45.00,CLOSED,0
656300.105,3,0,0,1.000,1.000,1.000,-90.00,180.00,-45.00,CLOSED,0
656300.154,3,0,0,1.000,1.000,1.000,-90.00,180.00,-45.00,CLOSED,0
656300.204,3,0,0,1.000,1.000,1.000,-90.00,180.00,-45.00,CLOSED,0
656300.254,3,0,0,1.000,1.000,1.000,-90.00,180.00,-45.00,CLOSED,0
656300.304,3,0,0,1.000,1.000,1.000,-90.00,180.00,-45.00,CLOSED,0
656300.354,3,0,0,1.000,1.000,1.000,-90.00,180.00,-45.00,CLOSED,0
656300.406,3,0,0,1.000,1.000,1.000,-90.00,180.00,-45.00,CLOSED,0
656300.454,3,0,0,1.000,1.000,1.000,-90.00,180.00,-45.00,CLOSED,0
656300.504,3,0,0,1.000,1.000,1.000,-90.00,180.00,-45.00,CLOSED,0
656300.555,3,0,0,1.000,1.000,1.000,-90.00,180.00,-45.00,CLOSED,0
656300.604,3,0,0,1.000,1.000,1.000,-90.00,180.00,-45.00,CLOSED,0
656300.654,3,0,0,1.000,1.000,1.000,-90.00,180.00,-45.00,CLOSED,0
656300.704,3,0,0,1.000,1.000,1.000,-90.00,180.00,-45.00,CLOSED,0
656300.754,3,0,0,0.999,1.000,1.000,-90.00,180.00,-45.00,CLOSED,0
656300.804,3,0,0,0.999,1.000,1.000,-90.00,180.00,-45.00,CLOSED,0
656300.854,3,0,0,0.999,1.000,1.000,-90.00,180.00,-45.00,CLOSED,0
656300.904,3,0,0,1.000,1.000,1.000,-90.00,180.00,-45.00,CLOSED,0
656300.954,3,0,0,1.000,1.000,1.000,-90.00,180.00,-45.00,CLOSED,0
656301.004,3,0,0,1.000,1.000,1.000,-90.00,180.00,-45.00,CLOSED,0
656301.053,3,0,0,1.000,1.000,1.000,-90.00,180.00,-45.00,CLOSED,0
656301.105,3,0,0,1.000,1.000,1.000,-90.00,180.00,-45.00,CLOSED,0
656301.154,3,0,0,1.000,1.000,1.000,-90.00,180.00,-45.00,CLOSED,0
656301.203,3,0,0,1.000,1.000,1.000,-90.00,180.00,-45.00,CLOSED,0
656301.254,3,0,0,1.000,1.000,1.000,-90.00,180.00,-45.00,CLOSED,0
656301.304,3,0,0,1.000,1.000,1.000,-90.00,180.00,-45.00,CLOSED,0
656301.354,3,0,0,1.000,1.000,1.000,-90.00,180.00,-45.00,CLOSED,0
656301.404,3,0,0,1.000,1.000,1.000,-90.00,180.00,-45.00,CLOSED,0
656301.454,3,0,0,1.000,1.000,1.000,-90.00,180.00,-45.00,CLOSED,0
656301.504,3,0,0,1.000,1.000,1.000,-90.00,180.00,-45.00,CLOSED,0
656301.553,3,0,0,1.000,1.000,1.000,-90.00,180.00,-45.00,CLOSED,0
656301.606,3,0,0,1.000,1.000,1.000,-90.00,180.00,-45.00,CLOSED,0
656301.654,3,0,0,1.000,1.000,1.000,-90.00,180.00,-45.00,CLOSED,0
656301.703,3,0,0,0.984,1.000,1.000,-90.00,180.00,-45.00,CLOSED,0
656301.754,3,0,0,0.751,1.000,1.000,-90.00,180.00,-45.00,CLOSED,0
656301.804,3,0,0,0.676,1.000,1.000,-90.00,180.00,-45.00,CLOSED,0
656301.854,3,0,0,0.897,1.000,1.000,-90.00,180.00,-45.00,CLOSED,0
656301.904,3,0,0,0.933,1.000,1.000,-90.00,180.00,-45.00,CLOSED,0
656301.954,3,0,0,0.995,1.000,1.000,-90.00,180.00,-45.00,CLOSED,0
656302.004,3,0,0,1.000,1.000,1.000,-90.00,180.00,-45.00,CLOSED,0
656302.054,3,0,0,1.000,1.000,1.000,-90.00,180.00,-45.00,CLOSED,0
656302.104,3,0,0,1.000,1.000,1.000,-90.00,180.00,-45.00,CLOSED,0
656302.154,3,0,0,1.000,1.000,1.000,-90.00,180.00,-45.00,CLOSED,0
656302.204,0,0,0,1.000,1.000,1.000,-90.00,180.00,-45.00,CLOSED,0
656302.254,0,0,0,1.000,1.000,1.000,-90.00,180.00,-45.00,CLOSED,0
656302.304,0,0,0,1.000,1.000,1.000,-90.00,180.00,-45.00,CLOSED,0
656302.353,0,0,0,1.000,1.000,1.000,-90.00,180.00,-45.00,CLOSED,0
656302.404,0,0,0,1.000,1.000,1.000,-90.00,180.00,-45.00,CLOSED,0
656302.454,0,0,0,1.000,1.000,1.000,-90.00,180.00,-45.00,CLOSED,0
656302.504,0,0,0,1.000,1.000,1.000,-90.00,180.00,-45.00,CLOSED,0
656302.554,0,0,0,1.000,1.000,1.000,-90.00,180.00,-45.00,CLOSED,0
656302.604,0,0,0,1.000,1.000,1.000,-90.00,180.00,-45.00,CLOSED,0
656302.654,0,0,0,1.000,1.000,1.000,-90.00,180.00,-45.00,CLOSED,0
656302.704,0,0,0,1.000,1.000,1.000,-90.00,180.00,-45.00,CLOSED,0
656302.754,0,0,0,1.000,1.000,1.000,-90.00,180.00,-45.00,CLOSED,0
656302.804,0,0,0,1.000,1.000,1.000,-90.00,180.00,-45.00,CLOSED,0
656302.854,0,0,0,1.000,1.000,1.000,-90.00,180.00,-45.00,CLOSED,0
656302.904,0,0,0,1.000,1.000,1.000,-90.00,180.00,-45.00,CLOSED,0
656302.954,0,0,0,1.000,1.000,1.000,-90.00,180.00,-45.00,CLOSED,0
656303.004,0,0,0,1.000,1.000,1.000,-90.00,180.00,-45.00,CLOSED,0
656303.054,0,0,0,1.000,1.000,1.000,-90.00,180.00,-45.00,CLOSED,0
656303.104,0,0,0,1.000,1.000,1.000,-90.00,180.00,-45.00,CLOSED,0
656303.154,0,0,0,1.000,1.000,1.000,-90.00,180.00,-45.00,CLOSED,0
656303.204,0,0,0,1.000,1.000,1.000,-90.00,180.00,-45.00,CLOSED,0
656303.256,0,0,0,1.000,1.000,1.000,-90.00,180.00,-45.00,CLOSED,0
656303.304,0,0,0,1.000,1.000,1.000,-90.00,180.00,-45.00,CLOSED,0
656303.354,0,0,0,1.000,1.000,1.000,-90.00,180.00,-45.00,CLOSED,0
656303.404,0,0,0,1.000,1.000,1.000,-90.00,180.00,-45.00,CLOSED,0
656303.454,0,0,0,1.000,1.000,1.000,-90.00,180.00,-45.00,CLOSED,0
656303.504,0,0,0,1.000,1.000,1.000,-90.00,180.00,-45.00,CLOSED,0
656303.554,0,0,0,1.000,1.000,1.000,-90.00,180.00,-45.00,CLOSED,0
656303.604,0,0,0,1.000,1.000,1.000,-90.00,180.00,-45.00,CLOSED,0
656303.654,0,0,0,1.000,1.000,1.000,-90.00,180.00,-45.00,CLOSED,0
656303.704,0,0,0,1.000,1.000,1.000,-90.00,180.00,-45.00,CLOSED,0
656303.755,0,0,0,1.000,1.000,1.000,-90.00,180.00,-45.00,CLOSED,0
656303.818,0,0,0,1.000,1.000,1.000,-90.00,180.00,-45.00,CLOSED,0
656303.855,0,0,0,1.000,1.000,1.000,-90.00,180.00,-45.00,CLOSED,0
656303.904,0,0,0,1.000,1.000,1.000,-90.00,180.00,-45.00,CLOSED,0
656303.954,0,0,0,1.000,1.000,1.000,-90.00,180.00,-45.00,CLOSED,0
656304.004,0,0,0,1.000,1.000,1.000,-90.00,180.00,-45.00,CLOSED,0
656304.054,0,0,0,1.000,1.000,1.000,-90.00,180.00,-45.00,CLOSED,0
656304.103,0,0,0,1.000,1.000,1.000,-90.00,180.00,-45.00,CLOSED,0
656304.154,0,0,0,1.000,1.000,1.000,-90.00,180.00,-45.00,CLOSED,0
656304.205,0,0,0,1.000,1.000,1.000,-90.00,180.00,-45.00,CLOSED,0
656304.254,0,0,0,1.000,1.000,1.000,-90.00,180.00,-45.00,CLOSED,0
656304.304,0,0,0,1.000,1.000,1.000,-90.00,180.00,-45.00,CLOSED,0
656304.354,0,0,0,1.000,1.000,1.000,-90.00,180.00,-45.00,CLOSED,0
656304.404,0,0,0,1.000,1.000,1.000,-90.00,180.00,-45.00,CLOSED,0
656304.454,0,0,0,1.000,1.000,1.000,-90.00,180.00,-45.00,CLOSED,0
656304.504,0,0,0,1.000,1.000,1.000,-90.00,180.00,-45.00,CLOSED,0
656304.554,0,0,0,1.000,1.000,1.000,-90.00,180.00,-45.00,CLOSED,0
656304.604,0,0,0,1.000,1.000,1.000,-90.00,180.00,-45.00,CLOSED,0
656304.654,0,0,0,1.000,1.000,1.000,-90.00,180.00,-45.00,CLOSED,0
656304.704,0,0,0,1.000,1.000,1.000,-90.00,180.00,-45.00,CLOSED,0
656304.754,0,0,0,1.000,1.000,1.000,-90.00,180.00,-45.00,CLOSED,0
656304.804,0,0,0,1.000,1.000,1.000,-90.00,180.00,-45.00,CLOSED,0
656304.854,0,0,0,1.000,1.000,1.000,-90.00,180.00,-45.00,CLOSED,0
656304.904,0,0,0,1.000,1.000,1.000,-90.00,180.00,-45.00,CLOSED,0
656304.953,0,0,0,1.000,1.000,1.000,-90.00,180.00,-45.00,CLOSED,0
656305.004,0,0,0,1.000,1.000,1.000,-90.00,180.00,-45.00,CLOSED,0
656305.054,0,0,0,1.000,1.000,1.000,-90.00,180.00,-45.00,CLOSED,0
656305.104,0,0,0,1.000,1.000,1.000,-90.00,180.00,-45.00,CLOSED,0
656305.154,0,0,0,1.000,1.000,1.000,-90.00,180.00,-45.00,CLOSED,0
656305.204,0,0,0,1.000,1.000,1.000,-90.00,180.00,-45.00,CLOSED,0
656305.254,0,0,0,1.000,1.000,1.000,-90.00,180.00,-45.00,CLOSED,0
656305.305,0,0,0,1.000,1.000,1.000,-90.00,180.00,-45.00,CLOSED,0
656305.353,0,0,0,1.000,1.000,1.000,-90.00,180.00,-45.00,CLOSED,0
656305.404,0,0,0,1.000,1.000,1.000,-90.00,180.00,-45.00,CLOSED,0
656305.454,0,0,0,1.000,1.000,1.000,-90.00,180.00,-45.00,CLOSED,0
656305.504,0,0,0,1.000,1.000,1.000,-90.00,180.00,-45.00,CLOSED,0
656305.553,0,0,0,1.000,1.000,1.000,-90.00,180.00,-45.00,CLOSED,0
656305.604,0,0,0,1.000,1.000,1.000,-90.00,180.00,-45.00,CLOSED,0
656305.654,0,0,0,1.000,1.000,1.000,-90.00,180.00,-45.00,CLOSED,0
656305.703,0,0,0,1.000,1.000,1.000,-90.00,180.00,-45.00,CLOSED,0
656305.754,0,0,0,1.000,1.000,1.000,-90.00,180.00,-45.00,CLOSED,0
656305.803,0,0,0,1.000,1.000,1.000,-90.00,180.00,-45.00,CLOSED,0
656305.854,0,0,0,1.000,1.000,1.000,-90.00,180.00,-45.00,CLOSED,0
656305.904,0,0,0,1.000,1.000,1.000,-90.00,180.00,-45.00,CLOSED,0
656305.954,0,0,0,1.000,1.000,1.000,-90.00,180.00,-45.00,CLOSED,0
656306.004,0,0,0,1.000,1.000,1.000,-90.00,180.00,-45.00,CLOSED,0
656306.054,0,0,0,1.000,1.000,1.000,-90.00,180.00,-45.00,CLOSED,0
656306.105,0,0,0,1.000,1.000,1.000,-90.00,180.00,-45.00,CLOSED,0
656306.155,0,0,0,1.000,1.000,1.000,-90.00,180.00,-45.00,CLOSED,0
656306.208,0,0,0,1.000,1.000,1.000,-90.00,180.00,-45.00,CLOSED,0
656306.255,0,0,0,1.000,1.000,1.000,-90.00,180.00,-45.00,CLOSED,0
656306.304,0,0,0,1.000,1.000,1.000,-90.00,180.00,-45.00,CLOSED,0
656306.354,0,0,0,1.000,1.000,1.000,-90.00,180.00,-45.00,CLOSED,0
656306.405,0,0,0,1.000,1.000,1.000,-90.00,180.00,-45.00,CLOSED,0
656306.454,0,0,0,1.000,1.000,1.000,-90.00,180.00,-45.00,CLOSED,0
656306.504,0,0,0,1.000,1.000,1.000,-90.00,180.00,-45.00,CLOSED,0
656306.555,0,0,0,1.000,1.000,1.000,-90.00,180.00,-45.00,CLOSED,0
656306.604,0,0,0,1.000,1.000,1.000,-90.00,180.00,-45.00,CLOSED,0
656306.654,0,0,0,1.000,1.000,1.000,-90.00,180.00,-45.00,CLOSED,0
656306.705,0,0,0,1.000,1.000,1.000,-90.00,180.00,-45.00,CLOSED,0
656306.755,0,0,0,1.000,1.000,1.000,-90.00,180.00,-45.00,CLOSED,0
656306.804,0,0,0,1.000,1.000,1.000,-90.00,180.00,-45.00,CLOSED,0
656306.855,0,0,0,1.000,1.000,1.000,-90.00,180.00,-45.00,CLOSED,0
656306.905,0,0,0,1.000,1.000,1.000,-90.00,180.00,-45.00,CLOSED,0
656306.955,0,0,0,1.000,1.000,1.000,-90.00,180.00,-45.00,CLOSED,0
656307.004,0,0,0,1.000,1.000,1.000,-90.00,180.00,-45.00,CLOSED,0
656307.054,0,0,0,1.000,1.000,1.000,-90.00,180.00,-45.00,CLOSED,0
656307.103,0,0,0,1.000,1.000,1.000,-90.00,180.00,-45.00,CLOSED,0
656307.156,0,0,0,1.000,1.000,1.000,-90.00,180.00,-45.00,CLOSED,0
656307.204,0,0,0,1.000,1.000,1.000,-90.00,180.00,-45.00,CLOSED,0
656307.253,0,0,0,1.000,1.000,1.000,-90.00,180.00,-45.00,CLOSED,0
656307.306,0,0,0,1.000,1.000,1.000,-90.00,180.00,-45.00,CLOSED,0
656307.354,0,0,0,1.000,1.000,1.000,-90.00,180.00,-45.00,CLOSED,0
656307.404,0,0,0,1.000,1.000,1.000,-90.00,180.00,-45.00,CLOSED,0
656307.453,0,0,0,1.000,1.000,1.000,-90.00,180.00,-45.00,CLOSED,0
656307.504,0,0,0,1.000,1.000,1.000,-90.00,180.00,-45.00,CLOSED,0
656307.554,0,0,0,1.000,1.000,1.000,-90.00,180.00,-45.00,CLOSED,0
656307.604,0,0,0,1.000,1.000,1.000,-90.00,180.00,-45.00,CLOSED,0
656307.654,0,0,0,1.000,1.000,1.000,-90.00,180.00,-45.00,CLOSED,0
656307.704,0,0,0,1.000,1.000,1.000,-90.00,180.00,-45.00,CLOSED,0
656307.755,0,0,0,1.000,1.000,1.000,-90.00,180.00,-45.00,CLOSED,0
656307.804,0,0,0,1.000,1.000,1.000,-90.00,180.00,-45.00,CLOSED,0
656307.854,0,0,0,1.000,1.000,1.000,-90.00,180.00,-45.00,CLOSED,0
656307.904,0,0,0,1.000,1.000,1.000,-90.00,180.00,-45.00,CLOSED,0
656307.954,0,0,0,1.000,1.000,1.000,-90.00,180.00,-45.00,CLOSED,0
656308.004,0,0,0,1.000,1.000,1.000,-90.00,180.00,-45.00,CLOSED,0
656308.054,0,0,0,1.000,1.000,1.000,-90.00,180.00,-45.00,CLOSED,0
656308.103,0,0,0,1.000,1.000,1.000,-90.00,180.00,-45.00,CLOSED,0
656308.153,0,0,0,1.000,1.000,1.000,-90.00,180.00,-45.00,CLOSED,0
656308.206,0,0,0,1.000,1.000,1.000,-90.00,180.00,-45.00,CLOSED,0
656308.254,0,0,0,1.000,1.000,1.000,-90.00,180.00,-45.00,CLOSED,0
656308.305,0,0,0,1.000,1.000,1.000,-90.00,180.00,-45.00,CLOSED,0
656308.354,0,0,0,1.000,1.000,1.000,-90.00,180.00,-45.00,CLOSED,0
656308.404,0,0,0,1.000,1.000,1.000,-90.00,180.00,-45.00,CLOSED,0
656308.453,0,0,0,1.000,1.000,1.000,-90.00,180.00,-45.00,CLOSED,0
656308.504,0,0,0,1.000,1.000,1.000,-90.00,180.00,-45.00,CLOSED,0
656308.554,0,0,0,1.000,1.000,1.000,-90.00,180.00,-45.00,CLOSED,0
656308.604,0,0,0,1.000,1.000,1.000,-90.00,180.00,-45.00,CLOSED,0
656308.654,0,0,0,1.000,1.000,1.000,-90.00,180.00,-45.00,CLOSED,0
656308.704,0,0,0,1.000,1.000,1.000,-90.00,180.00,-45.00,CLOSED,0
656308.753,0,0,0,1.000,1.000,1.000,-90.00,180.00,-45.00,CLOSED,0
656308.804,0,0,0,1.000,1.000,1.000,-90.00,180.00,-45.00,CLOSED,0
656308.854,0,0,0,1.000,1.000,1.000,-90.00,180.00,-45.00,CLOSED,0
656308.903,0,0,0,1.000,1.000,1.000,-90.00,180.00,-45.00,CLOSED,0
656308.954,0,0,0,1.000,1.000,1.000,-90.00,180.00,-45.00,CLOSED,0
656309.003,0,0,0,1.000,1.000,1.000,-90.00,180.00,-45.00,CLOSED,0
656309.054,0,0,0,1.000,1.000,1.000,-90.00,180.00,-45.00,CLOSED,0
656309.103,0,0,0,1.000,1.000,1.000,-90.00,180.00,-45.00,CLOSED,0
656309.154,0,0,0,1.000,1.000,1.000,-90.00,180.00,-45.00,CLOSED,0
656309.204,0,0,0,1.000,1.000,1.000,-90.00,180.00,-45.00,CLOSED,0
656309.253,0,0,0,1.000,1.000,1.000,-90.00,180.00,-45.00,CLOSED,0
656309.304,0,0,0,1.000,1.000,1.000,-90.00,180.00,-45.00,CLOSED,0
656309.354,0,0,0,1.000,1.000,1.000,-90.00,180.00,-45.00,CLOSED,0
656309.405,0,0,0,1.000,1.000,1.000,-90.00,180.00,-45.00,CLOSED,0
656309.454,0,0,0,1.000,1.000,1.000,-90.00,180.00,-45.00,CLOSED,0
656309.504,0,0,0,1.000,1.000,1.000,-90.00,180.00,-45.00,CLOSED,0
656309.556,0,0,0,1.000,1.000,1.000,-90.00,180.00,-45.00,CLOSED,0
656309.604,0,0,0,1.000,1.000,1.000,-90.00,180.00,-45.00,CLOSED,0
656309.653,0,0,0,1.000,1.000,1.000,-90.00,180.00,-45.00,CLOSED,0
656309.704,0,0,0,1.000,1.000,1.000,-90.00,180.00,-45.00,CLOSED,0
656309.754,0,0,0,1.000,1.000,1.000,-90.00,180.00,-45.00,CLOSED,0
656309.804,0,0,0,1.000,1.000,1.000,-90.00,180.00,-45.00,CLOSED,0
656309.854,0,0,0,1.000,1.000,1.000,-90.00,180.00,-45.00,CLOSED,0
656309.904,0,0,0,1.000,1.000,1.000,-90.00,180.00,-45.00,CLOSED,0
656309.954,0,0,0,1.000,1.000,1.000,-90.00,180.00,-45.00,CLOSED,0
656310.004,0,0,0,1.000,1.000,1.000,-90.00,180.00,-45.00,CLOSED,0
656310.056,0,0,0,1.000,1.000,1.000,-90.00,180.00,-45.00,CLOSED,0
656310.104,0,0,0,1.000,1.000,1.000,-90.00,180.00,-45.00,CLOSED,0
656310.154,0,0,0,1.000,1.000,1.000,-90.00,180.00,-45.00,CLOSED,0
656310.204,0,0,0,1.000,1.000,1.000,-90.00,180.00,-45.00,CLOSED,0
656310.254,0,0,0,1.000,1.000,1.000,-90.00,180.00,-45.00,CLOSED,0
656310.303,0,0,0,1.000,1.000,1.000,-90.00,180.00,-45.00,CLOSED,0
656310.354,0,0,0,1.000,1.000,1.000,-90.00,180.00,-45.00,CLOSED,0
656310.404,0,0,0,1.000,1.000,1.000,-90.00,180.00,-45.00,CLOSED,0
656310.454,0,0,0,1.000,1.000,1.000,-90.00,180.00,-45.00,CLOSED,0
656310.503,0,0,0,1.000,1.000,1.000,-90.00,180.00,-45.00,CLOSED,0
656310.554,0,0,0,1.000,1.000,1.000,-90.00,180.00,-45.00,CLOSED,0
656310.604,0,0,0,1.000,1.000,1.000,-90.00,180.00,-45.00,CLOSED,0
656310.654,0,0,0,1.000,1.000,1.000,-90.00,180.00,-45.00,CLOSED,0
656310.704,0,0,0,1.000,1.000,1.000,-90.00,180.00,-45.00,CLOSED,0
656310.754,0,0,0,1.000,1.000,1.000,-90.00,180.00,-45.00,CLOSED,0
656310.804,0,0,0,1.000,1.000,1.000,-90.00,180.00,-45.00,CLOSED,0
656310.854,0,0,0,1.000,1.000,1.000,-90.00,180.00,-45.00,CLOSED,0
656310.905,0,0,0,1.000,1.000,1.000,-90.00,180.00,-45.00,CLOSED,0
656310.954,0,0,0,1.000,1.000,1.000,-90.00,180.00,-45.00,CLOSED,0
656311.004,0,0,0,1.000,1.000,1.000,-90.00,180.00,-45.00,CLOSED,0
656311.054,0,0,0,1.000,1.000,1.000,-90.00,180.00,-45.00,CLOSED,0
656311.104,0,0,0,1.000,1.000,1.000,-90.00,180.00,-45.00,CLOSED,0
656311.154,0,0,0,1.000,1.000,1.000,-90.00,180.00,-45.00,CLOSED,0
656311.204,0,0,0,1.000,1.000,1.000,-90.00,180.00,-45.00,CLOSED,0
656311.254,0,0,0,1.000,1.000,1.000,-90.00,180.00,-45.00,CLOSED,0
656311.304,0,0,0,1.000,1.000,1.000,-90.00,180.00,-45.00,CLOSED,0
656311.354,0,0,0,1.000,1.000,1.000,-90.00,180.00,-45.00,CLOSED,0
656311.404,0,0,0,1.000,1.000,1.000,-90.00,180.00,-45.00,CLOSED,0
656311.454,0,0,0,1.000,1.000,1.000,-90.00,180.00,-45.00,CLOSED,0
656311.505,0,0,0,1.000,1.000,1.000,-90.00,180.00,-45.00,CLOSED,0
656311.554,0,0,0,1.000,1.000,1.000,-90.00,180.00,-45.00,CLOSED,0
656311.604,0,0,0,1.000,1.000,1.000,-90.00,180.00,-45.00,CLOSED,0
656311.654,0,0,0,1.000,1.000,1.000,-90.00,180.00,-45.00,CLOSED,0
656311.704,0,0,0,1.000,1.000,1.000,-90.00,180.00,-45.00,CLOSED,0
656311.754,0,0,0,1.000,1.000,1.000,-90.00,180.00,-45.00,CLOSED,0
656311.804,0,0,0,1.000,1.000,1.000,-90.00,180.00,-45.00,CLOSED,0
656311.855,0,0,0,1.000,1.000,1.000,-90.00,180.00,-45.00,CLOSED,0
656311.904,0,0,0,1.000,1.000,1.000,-90.00,180.00,-45.00,CLOSED,0
656311.953,0,0,0,1.000,1.000,1.000,-90.00,180.00,-45.00,CLOSED,0
656312.004,0,0,0,1.000,1.000,1.000,-90.00,180.00,-45.00,CLOSED,0
656312.054,0,0,0,1.000,1.000,1.000,-90.00,180.00,-45.00,CLOSED,0
656312.104,0,0,0,1.000,1.000,1.000,-90.00,180.00,-45.00,CLOSED,0
656312.155,0,0,0,1.000,1.000,1.000,-90.00,180.00,-45.00,CLOSED,0
656312.204,0,0,0,1.000,1.000,1.000,-90.00,180.00,-45.00,CLOSED,0
656312.254,0,0,0,1.000,1.000,1.000,-90.00,180.00,-45.00,CLOSED,0
656312.304,0,0,0,1.000,1.000,1.000,-90.00,180.00,-45.00,CLOSED,0
656312.354,0,0,0,1.000,1.000,1.000,-90.00,180.00,-45.00,CLOSED,0
656312.404,0,0,0,1.000,1.000,1.000,-90.00,180.00,-45.00,CLOSED,0
656312.453,0,0,0,1.000,1.000,1.000,-90.00,180.00,-45.00,CLOSED,0
656312.504,0,0,0,1.000,1.000,1.000,-90.00,180.00,-45.00,CLOSED,0
656312.554,0,0,0,1.000,1.000,1.000,-90.00,180.00,-45.00,CLOSED,0
656312.604,0,0,0,1.000,1.000,1.000,-90.00,180.00,-45.00,CLOSED,0
656312.654,0,0,0,1.000,1.000,1.000,-90.00,180.00,-45.00,CLOSED,0
656312.704,0,0,0,1.000,1.000,1.000,-90.00,180.00,-45.00,CLOSED,0
656312.754,0,0,0,1.000,1.000,1.000,-90.00,180.00,-45.00,CLOSED,0
656312.804,0,0,0,1.000,1.000,1.000,-90.00,180.00,-45.00,CLOSED,0
656312.854,0,0,0,1.000,1.000,1.000,-90.00,180.00,-45.00,CLOSED,0
656312.904,0,0,0,1.000,1.000,1.000,-90.00,180.00,-45.00,CLOSED,0
656312.954,0,0,0,1.000,1.000,1.000,-90.00,180.00,-45.00,CLOSED,0
656313.004,0,0,0,1.000,1.000,1.000,-90.00,180.00,-45.00,CLOSED,0
656313.054,0,0,0,1.000,1.000,1.000,-90.00,180.00,-45.00,CLOSED,0
656313.105,0,0,0,1.000,1.000,1.000,-90.00,180.00,-45.00,CLOSED,0
656313.157,0,0,0,1.000,1.000,1.000,-90.00,180.00,-45.00,CLOSED,0
656313.204,0,0,0,1.000,1.000,1.000,-90.00,180.00,-45.00,CLOSED,0
656313.254,0,0,0,1.000,1.000,1.000,-90.00,180.00,-45.00,CLOSED,0
656313.304,0,0,0,1.000,1.000,1.000,-90.00,180.00,-45.00,CLOSED,0
656313.354,0,0,0,1.000,1.000,1.000,-90.00,180.00,-45.00,CLOSED,0
656313.404,0,0,0,1.000,1.000,1.000,-90.00,180.00,-45.00,CLOSED,0
656313.454,0,0,0,1.000,1.000,1.000,-90.00,180.00,-45.00,CLOSED,0
656313.504,0,0,0,1.000,1.000,1.000,-90.00,180.00,-45.00,CLOSED,0
656313.554,0,0,0,1.000,1.000,1.000,-90.00,180.00,-45.00,CLOSED,0
656313.604,0,0,0,1.000,1.000,1.000,-90.00,180.00,-45.00,CLOSED,0
656313.654,0,0,0,1.000,1.000,1.000,-90.00,180.00,-45.00,CLOSED,0
656313.704,0,0,0,1.000,1.000,1.000,-90.00,180.00,-45.00,CLOSED,0
656313.754,0,0,0,1.000,1.000,1.000,-90.00,180.00,-45.00,CLOSED,0
656313.803,0,0,0,1.000,1.000,1.000,-90.00,180.00,-45.00,CLOSED,0
656313.854,0,0,0,1.000,1.000,1.000,-90.00,180.00,-45.00,CLOSED,0
656313.904,0,0,0,1.000,1.000,1.000,-90.00,180.00,-45.00,CLOSED,0
656313.954,0,0,0,1.000,1.000,1.000,-90.00,180.00,-45.00,CLOSED,0
656314.004,0,0,0,1.000,1.000,1.000,-90.00,180.00,-45.00,CLOSED,0
656314.053,0,0,0,1.000,1.000,1.000,-90.00,180.00,-45.00,CLOSED,0
656314.104,0,0,0,1.000,1.000,1.000,-90.00,180.00,-45.00,CLOSED,0
656314.156,0,0,0,1.000,1.000,1.000,-90.00,180.00,-45.00,CLOSED,0
656314.205,0,0,0,1.000,1.000,1.000,-90.00,180.00,-45.00,CLOSED,0
656314.254,0,0,0,1.000,1.000,1.000,-90.00,180.00,-45.00,CLOSED,0
656314.304,0,0,0,1.000,1.000,1.000,-90.00,180.00,-45.00,CLOSED,0
656314.354,0,0,0,1.000,1.000,1.000,-90.00,180.00,-45.00,CLOSED,0
656314.404,0,0,0,1.000,1.000,1.000,-90.00,180.00,-45.00,CLOSED,0
656314.454,0,0,0,1.000,1.000,1.000,-90.00,180.00,-45.00,CLOSED,0
656314.504,0,0,0,1.000,1.000,1.000,-90.00,180.00,-45.00,CLOSED,0
656314.553,0,0,0,1.000,1.000,1.000,-90.00,180.00,-45.00,CLOSED,0
656314.604,0,0,0,1.000,1.000,1.000,-90.00,180.00,-45.00,CLOSED,0
656314.654,0,0,0,1.000,1.000,1.000,-90.00,180.00,-45.00,CLOSED,0
656314.704,0,0,0,1.000,1.000,1.000,-90.00,180.00,-45.00,CLOSED,0
656314.754,0,0,0,1.000,1.000,1.000,-90.00,180.00,-45.00,CLOSED,0
656314.804,0,0,0,1.000,1.000,1.000,-90.00,180.00,-45.00,CLOSED,0
656314.854,0,0,0,1.000,1.000,1.000,-90.00,180.00,-45.00,CLOSED,0
656314.904,0,0,0,1.000,1.000,1.000,-90.00,180.00,-45.00,CLOSED,0
656314.954,0,0,0,1.000,1.000,1.000,-90.00,180.00,-45.00,CLOSED,0
656315.004,0,0,0,1.000,1.000,1.000,-90.00,180.00,-45.00,CLOSED,0
656315.054,0,0,0,1.000,1.000,1.000,-90.00,180.00,-45.00,CLOSED,0
656315.104,0,0,0,1.000,1.000,1.000,-90.00,180.00,-45.00,CLOSED,0
656315.154,0,0,0,1.000,1.000,1.000,-90.00,180.00,-45.00,CLOSED,0
656315.205,0,0,0,1.000,1.000,1.000,-90.00,180.00,-45.00,CLOSED,0
656315.254,0,0,0,1.000,1.000,1.000,-90.00,180.00,-45.00,CLOSED,0
656315.305,0,0,0,1.000,1.000,1.000,-90.00,180.00,-45.00,CLOSED,0
656315.354,0,0,0,1.000,1.000,1.000,-90.00,180.00,-45.00,CLOSED,0
656315.404,0,0,0,1.000,1.000,1.000,-90.00,180.00,-45.00,CLOSED,0
656315.454,0,0,0,1.000,1.000,1.000,-90.00,180.00,-45.00,CLOSED,0
656315.504,0,0,0,1.000,1.000,1.000,-90.00,180.00,-45.00,CLOSED,0
656315.554,0,0,0,1.000,1.000,1.000,-90.00,180.00,-45.00,CLOSED,0
656315.604,0,0,0,0.996,1.000,1.000,-90.00,180.00,-45.00,CLOSED,0
656315.654,0,0,0,0.993,1.000,1.000,-90.00,180.00,-45.00,CLOSED,0
656315.704,0,0,0,1.000,1.000,1.000,-90.00,180.00,-45.00,CLOSED,0
656315.754,0,0,0,1.000,1.000,1.000,-90.00,180.00,-45.00,CLOSED,0
656315.804,0,0,0,1.000,1.000,1.000,-90.00,180.00,-45.00,CLOSED,0
656315.854,0,0,0,1.000,1.000,1.000,-90.00,180.00,-45.00,CLOSED,0
656315.904,0,0,0,1.000,1.000,1.000,-90.00,180.00,-45.00,CLOSED,0
656315.954,0,0,0,1.000,1.000,1.000,-90.00,180.00,-45.00,CLOSED,0
656316.004,0,0,0,0.990,1.000,1.000,-90.00,180.00,-45.00,CLOSED,0
656316.054,0,0,0,0.999,1.000,1.000,-90.00,180.00,-45.00,CLOSED,0
656316.103,0,0,0,0.991,1.000,1.000,-90.00,180.00,-45.00,CLOSED,0
656316.154,0,0,0,0.992,1.000,1.000,-90.00,180.00,-45.00,CLOSED,0
656316.204,0,0,0,0.998,1.000,1.000,-90.00,180.00,-45.00,CLOSED,0
656316.254,0,0,0,1.000,1.000,1.000,-90.00,180.00,-45.00,CLOSED,0
656316.304,0,0,0,1.000,1.000,1.000,-90.00,180.00,-45.00,CLOSED,0
656316.354,0,0,0,1.000,1.000,1.000,-90.00,180.00,-45.00,CLOSED,0
656316.404,0,0,0,1.000,1.000,1.000,-90.00,180.00,-45.00,CLOSED,0
656316.457,0,0,0,1.000,1.000,1.000,-90.00,180.00,-45.00,CLOSED,0
656316.504,0,0,0,1.000,1.000,1.000,-90.00,180.00,-45.00,CLOSED,0
656316.554,0,0,0,1.000,1.000,1.000,-90.00,180.00,-45.00,CLOSED,0
656316.604,0,0,0,1.000,1.000,1.000,-90.00,180.00,-45.00,CLOSED,0
656316.654,0,0,0,1.000,1.000,1.000,-90.00,180.00,-45.00,CLOSED,0
656316.704,0,0,0,1.000,1.000,1.000,-90.00,180.00,-45.00,CLOSED,0
656316.754,0,0,0,1.000,1.000,1.000,-90.00,180.00,-45.00,CLOSED,0
656316.804,0,0,0,1.000,1.000,1.000,-90.00,180.00,-45.00,CLOSED,0
656316.854,0,0,0,1.000,1.000,1.000,-90.00,180.00,-45.00,CLOSED,0
656316.906,0,0,0,1.000,1.000,1.000,-90.00,180.00,-45.00,CLOSED,0
656316.955,0,0,0,1.000,1.000,1.000,-90.00,180.00,-45.00,CLOSED,0
656317.003,0,0,0,1.000,1.000,1.000,-90.00,180.00,-45.00,CLOSED,0
656317.054,0,0,0,1.000,1.000,1.000,-90.00,180.00,-45.00,CLOSED,0
656317.104,0,0,0,1.000,1.000,1.000,-90.00,180.00,-45.00,CLOSED,0
656317.154,0,0,0,1.000,1.000,1.000,-90.00,180.00,-45.00,CLOSED,0
656317.204,0,0,0,1.000,1.000,1.000,-90.00,180.00,-45.00,CLOSED,0
656317.254,0,0,0,1.000,1.000,1.000,-90.00,180.00,-45.00,CLOSED,0
656317.304,0,0,0,1.000,1.000,1.000,-90.00,180.00,-45.00,CLOSED,0
656317.354,0,0,0,1.000,1.000,1.000,-90.00,180.00,-45.00,CLOSED,0
656317.404,0,0,0,1.000,1.000,1.000,-90.00,180.00,-45.00,CLOSED,0
656317.454,0,0,0,1.000,1.000,1.000,-90.00,180.00,-45.00,CLOSED,0
656317.504,0,0,0,1.000,1.000,1.000,-90.00,180.00,-45.00,CLOSED,0
656317.554,0,0,0,1.000,1.000,1.000,-90.00,180.00,-45.00,CLOSED,0
656317.603,0,0,0,1.000,1.000,1.000,-90.00,180.00,-45.00,CLOSED,0
656317.654,0,0,0,1.000,1.000,1.000,-90.00,180.00,-45.00,CLOSED,0
656317.705,0,0,0,1.000,1.000,1.000,-90.00,180.00,-45.00,CLOSED,0
656317.754,0,0,0,1.000,1.000,1.000,-90.00,180.00,-45.00,CLOSED,0
656317.806,0,0,0,1.000,1.000,1.000,-90.00,180.00,-45.00,CLOSED,0
656317.854,0,0,0,1.000,1.000,1.000,-90.00,180.00,-45.00,CLOSED,0
656317.905,0,0,0,1.000,1.000,1.000,-90.00,180.00,-45.00,CLOSED,0
656317.954,0,0,0,1.000,1.000,1.000,-90.00,180.00,-45.00,CLOSED,0
656318.004,0,0,0,1.000,1.000,1.000,-90.00,180.00,-45.00,CLOSED,0
656318.054,0,0,0,1.000,1.000,1.000,-90.00,180.00,-45.00,CLOSED,0
656318.104,0,0,0,1.000,1.000,1.000,-90.00,180.00,-45.00,CLOSED,0
656318.154,0,0,0,1.000,1.000,1.000,-90.00,180.00,-45.00,CLOSED,0
656318.204,0,0,0,1.000,1.000,1.000,-90.00,180.00,-45.00,CLOSED,0
656318.254,0,0,0,1.000,1.000,1.000,-90.00,180.00,-45.00,CLOSED,0
656318.304,0,0,0,1.000,1.000,1.000,-90.00,180.00,-45.00,CLOSED,0
656318.354,0,0,0,1.000,1.000,1.000,-90.00,180.00,-45.00,CLOSED,0
656318.408,0,0,0,1.000,1.000,1.000,-90.00,180.00,-45.00,CLOSED,0
656318.454,0,0,0,1.000,1.000,1.000,-90.00,180.00,-45.00,CLOSED,0
656318.503,0,0,0,1.000,1.000,1.000,-90.00,180.00,-45.00,CLOSED,0
656318.556,0,0,0,1.000,1.000,1.000,-90.00,180.00,-45.00,CLOSED,0
656318.604,0,0,0,1.000,1.000,1.000,-90.00,180.00,-45.00,CLOSED,0
656318.654,0,0,0,1.000,1.000,1.000,-90.00,180.00,-45.00,CLOSED,0
656318.704,0,0,0,1.000,1.000,1.000,-90.00,180.00,-45.00,CLOSED,0
656318.754,0,0,0,1.000,1.000,1.000,-90.00,180.00,-45.00,CLOSED,0
656318.804,0,0,0,1.000,1.000,1.000,-90.00,180.00,-45.00,CLOSED,0
656318.854,0,0,0,1.000,1.000,1.000,-90.00,180.00,-45.00,CLOSED,0
656318.904,0,0,0,1.000,1.000,1.000,-90.00,180.00,-45.00,CLOSED,0
656318.954,0,0,0,1.000,1.000,1.000,-90.00,180.00,-45.00,CLOSED,0
656319.004,0,0,0,1.000,1.000,1.000,-90.00,180.00,-45.00,CLOSED,0
656319.054,0,0,0,1.000,1.000,1.000,-90.00,180.00,-45.00,CLOSED,0
656319.105,0,0,0,1.000,1.000,1.000,-90.00,180.00,-45.00,CLOSED,0
656319.154,0,0,0,1.000,1.000,1.000,-90.00,180.00,-45.00,CLOSED,0
656319.203,0,0,0,1.000,1.000,1.000,-90.00,180.00,-45.00,CLOSED,0
656319.253,0,0,0,1.000,1.000,1.000,-90.00,180.00,-45.00,CLOSED,0
656319.303,0,0,0,1.000,1.000,1.000,-90.00,180.00,-45.00,CLOSED,0
656319.357,0,0,0,1.000,1.000,1.000,-90.00,180.00,-45.00,CLOSED,0
656319.404,0,0,0,1.000,1.000,1.000,-90.00,180.00,-45.00,CLOSED,0
656319.454,0,0,0,1.000,1.000,1.000,-90.00,180.00,-45.00,CLOSED,0
656319.504,0,0,0,1.000,1.000,1.000,-90.00,180.00,-45.00,CLOSED,0
656319.554,0,0,0,1.000,1.000,1.000,-90.00,180.00,-45.00,CLOSED,0
656319.604,0,0,0,1.000,1.000,1.000,-90.00,180.00,-45.00,CLOSED,0
656319.654,0,0,0,1.000,1.000,1.000,-90.00,180.00,-45.00,CLOSED,0
656319.704,0,0,0,1.000,1.000,1.000,-90.00,180.00,-45.00,CLOSED,0
656319.754,0,0,0,1.000,1.000,1.000,-90.00,180.00,-45.00,CLOSED,0
656319.804,0,0,0,1.000,1.000,1.000,-90.00,180.00,-45.00,CLOSED,0
656319.854,0,0,0,1.000,1.000,1.000,-90.00,180.00,-45.00,CLOSED,0
656319.904,0,0,0,1.000,1.000,1.000,-90.00,180.00,-45.00,CLOSED,0
656319.954,0,0,0,1.000,1.000,1.000,-90.00,180.00,-45.00,CLOSED,0
656320.004,0,0,0,1.000,1.000,1.000,-90.00,180.00,-45.00,CLOSED,0
656320.054,0,0,0,1.000,1.000,1.000,-90.00,180.00,-45.00,CLOSED,0
656320.104,0,0,0,1.000,1.000,1.000,-90.00,180.00,-45.00,CLOSED,0
656320.154,0,0,0,1.000,1.000,1.000,-90.00,180.00,-45.00,CLOSED,0
656320.204,0,0,0,1.000,1.000,1.000,-90.00,180.00,-45.00,CLOSED,0
656320.254,0,0,0,1.000,1.000,1.000,-90.00,180.00,-45.00,CLOSED,0
656320.305,0,0,0,1.000,1.000,1.000,-90.00,180.00,-45.00,CLOSED,0
656320.354,0,0,0,1.000,1.000,1.000,-90.00,180.00,-45.00,CLOSED,0
656320.404,0,0,0,1.000,1.000,1.000,-90.00,180.00,-45.00,CLOSED,0
656320.453,0,0,0,1.000,1.000,1.000,-90.00,180.00,-45.00,CLOSED,0
656320.504,0,0,0,1.000,1.000,1.000,-90.00,180.00,-45.00,CLOSED,0
656320.554,0,0,0,1.000,1.000,1.000,-90.00,180.00,-45.00,CLOSED,0
656320.604,0,0,0,1.000,1.000,1.000,-90.00,180.00,-45.00,CLOSED,0
656320.654,0,0,0,1.000,1.000,1.000,-90.00,180.00,-45.00,CLOSED,0
656320.704,0,0,0,1.000,1.000,1.000,-90.00,180.00,-45.00,CLOSED,0
656320.754,0,0,0,1.000,1.000,1.000,-90.00,180.00,-45.00,CLOSED,0
656320.804,0,0,0,1.000,1.000,1.000,-90.00,180.00,-45.00,CLOSED,0
656320.854,0,0,0,1.000,1.000,1.000,-90.00,180.00,-45.00,CLOSED,0
656320.905,0,0,0,1.000,1.000,1.000,-90.00,180.00,-45.00,CLOSED,0
656320.954,0,0,0,1.000,1.000,1.000,-90.00,180.00,-45.00,CLOSED,0
656321.004,0,0,0,1.000,1.000,1.000,-90.00,180.00,-45.00,CLOSED,0
656321.054,0,0,0,1.000,1.000,1.000,-90.00,180.00,-45.00,CLOSED,0
656321.105,0,0,0,1.000,1.000,1.000,-90.00,180.00,-45.00,CLOSED,0
656321.154,0,0,0,1.000,1.000,1.000,-90.00,180.00,-45.00,CLOSED,0
656321.205,0,0,0,1.000,1.000,1.000,-90.00,180.00,-45.00,CLOSED,0
656321.254,0,0,0,1.000,1.000,1.000,-90.00,180.00,-45.00,CLOSED,0
656321.304,0,0,0,1.000,1.000,1.000,-90.00,180.00,-45.00,CLOSED,0
656321.354,0,0,0,1.000,1.000,1.000,-90.00,180.00,-45.00,CLOSED,0
656321.404,0,0,0,1.000,1.000,1.000,-90.00,180.00,-45.00,CLOSED,0
656321.454,0,0,0,1.000,1.000,1.000,-90.00,180.00,-45.00,CLOSED,0
656321.504,0,0,0,1.000,1.000,1.000,-90.00,180.00,-45.00,CLOSED,0
656321.554,0,0,0,1.000,1.000,1.000,-90.00,180.00,-45.00,CLOSED,0
656321.606,0,0,0,1.000,1.000,1.000,-90.00,180.00,-45.00,CLOSED,0
656321.654,0,0,0,1.000,1.000,1.000,-90.00,180.00,-45.00,CLOSED,0
656321.704,0,0,0,1.000,1.000,1.000,-90.00,180.00,-45.00,CLOSED,0
656321.753,0,0,0,1.000,1.000,1.000,-90.00,180.00,-45.00,CLOSED,0
656321.804,0,0,0,1.000,1.000,1.000,-90.00,180.00,-45.00,CLOSED,0
656321.855,0,0,0,1.000,1.000,1.000,-90.00,180.00,-45.00,CLOSED,0
656321.904,0,0,0,1.000,1.000,1.000,-90.00,180.00,-45.00,CLOSED,0
656321.954,0,0,0,1.000,1.000,1.000,-90.00,180.00,-45.00,CLOSED,0
656322.006,0,0,0,1.000,1.000,1.000,-90.00,180.00,-45.00,CLOSED,0
656322.054,0,0,0,1.000,1.000,1.000,-90.00,180.00,-45.00,CLOSED,0
656322.104,0,0,0,1.000,1.000,1.000,-90.00,180.00,-45.00,CLOSED,0
656322.154,0,0,0,1.000,1.000,1.000,-90.00,180.00,-45.00,CLOSED,0
656322.204,0,0,0,1.000,1.000,1.000,-90.00,180.00,-45.00,CLOSED,0
656322.254,0,0,0,1.000,1.000,1.000,-90.00,180.00,-45.00,CLOSED,0
656322.304,0,0,0,1.000,1.000,1.000,-90.00,180.00,-45.00,CLOSED,0
656322.354,0,0,0,1.000,1.000,1.000,-90.00,180.00,-45.00,CLOSED,0
656322.403,0,0,0,1.000,1.000,1.000,-90.00,180.00,-45.00,CLOSED,0
656322.456,0,0,0,1.000,1.000,1.000,-90.00,180.00,-45.00,CLOSED,0
656322.504,0,0,0,1.000,1.000,1.000,-90.00,180.00,-45.00,CLOSED,0
656322.554,0,0,0,1.000,1.000,1.000,-90.00,180.00,-45.00,CLOSED,0
656322.604,0,0,0,1.000,1.000,1.000,-90.00,180.00,-45.00,CLOSED,0
656322.654,0,0,0,1.000,0.999,1.000,-90.00,180.00,-45.00,CLOSED,0
656322.704,0,0,0,1.000,0.998,1.000,-90.00,180.00,-45.00,CLOSED,0
656322.753,0,0,0,1.000,0.994,1.000,-90.00,180.00,-45.00,CLOSED,0
656322.804,0,0,0,1.000,0.973,1.000,-90.00,180.00,-45.00,CLOSED,0
656322.853,0,0,0,1.000,0.706,1.000,-90.00,180.00,-45.00,CLOSED,0
656322.904,0,0,0,1.000,0.835,1.000,-90.00,180.00,-45.00,CLOSED,0
656322.955,0,0,0,1.000,0.947,1.000,-90.00,180.00,-45.00,CLOSED,0
656323.004,0,0,0,1.000,0.962,1.000,-90.00,180.00,-45.00,CLOSED,0
656323.054,0,0,0,1.000,0.954,1.000,-90.00,180.00,-45.00,CLOSED,0
656323.105,0,0,0,1.000,0.886,1.000,-90.00,180.00,-45.00,CLOSED,0
656323.154,0,0,0,1.000,0.583,1.000,-90.00,180.00,-45.00,CLOSED,0
656323.204,0,0,0,1.000,0.745,1.000,-90.00,180.00,-45.00,CLOSED,0
656323.254,0,0,0,1.000,0.909,1.000,-90.00,180.00,-45.00,CLOSED,0
656323.304,0,0,0,1.000,0.961,0.999,-90.00,180.00,-45.00,CLOSED,0
656323.354,0,0,0,1.000,0.986,0.998,-90.00,180.00,-45.00,CLOSED,0
656323.404,0,0,0,1.000,0.994,0.997,-90.00,180.00,-45.00,CLOSED,0
656323.454,0,0,0,1.000,0.996,0.996,-90.00,180.00,-45.00,CLOSED,0
656323.504,0,0,0,1.000,0.997,0.995,-90.00,180.00,-45.00,CLOSED,0
656323.554,0,0,0,1.000,0.998,0.995,-90.00,180.00,-45.00,CLOSED,0
656323.604,0,0,0,1.000,0.998,0.994,-90.00,180.00,-45.00,CLOSED,0
656323.654,0,0,0,1.000,0.998,0.994,-90.00,180.00,-45.00,CLOSED,0
656323.704,0,0,0,1.000,0.999,0.992,-90.00,180.00,-45.00,CLOSED,0
656323.754,0,0,0,1.000,0.999,0.987,-90.00,180.00,-45.00,CLOSED,0
656323.804,0,0,0,1.000,0.999,0.979,-90.00,180.00,-45.00,CLOSED,0
656323.854,0,0,0,1.000,0.999,0.969,-90.00,180.00,-45.00,CLOSED,0
656323.905,0,0,0,1.000,1.000,0.968,-90.00,180.00,-45.00,CLOSED,0
656323.954,0,0,0,1.000,1.000,0.970,-90.00,180.00,-45.00,CLOSED,0
656324.004,0,0,0,1.000,1.000,0.976,-90.00,180.00,-45.00,CLOSED,0
656324.054,0,0,0,1.000,1.000,0.979,-90.00,180.00,-45.00,CLOSED,0
656324.104,0,0,0,1.000,0.999,0.980,-90.00,180.00,-45.00,CLOSED,0
656324.153,0,0,0,1.000,0.999,0.982,-90.00,180.00,-45.00,CLOSED,0
656324.204,0,0,0,1.000,0.998,0.983,-90.00,180.00,-45.00,CLOSED,0
656324.255,0,0,0,1.000,0.994,0.979,-90.00,180.00,-45.00,CLOSED,0
656324.304,0,0,0,1.000,0.980,0.973,-90.00,180.00,-45.00,CLOSED,0
656324.354,0,0,0,1.000,0.943,0.951,-90.00,180.00,-45.00,CLOSED,0
656324.404,0,0,0,1.000,0.888,0.924,-90.00,180.00,-45.00,CLOSED,0
656324.454,0,0,0,1.000,0.865,0.897,-90.00,180.00,-45.00,CLOSED,0
656324.504,0,0,0,1.000,0.869,0.887,-90.00,180.00,-45.00,CLOSED,0
656324.554,0,0,0,1.000,0.854,0.901,-90.00,180.00,-45.00,CLOSED,0
656324.604,0,0,0,1.000,0.831,0.929,-90.00,180.00,-45.00,CLOSED,0
656324.654,0,0,0,1.000,0.825,0.960,-90.00,180.00,-45.00,CLOSED,0
656324.704,0,0,0,1.000,0.859,0.977,-90.00,180.00,-45.00,CLOSED,0
656324.754,0,0,0,1.000,0.906,0.988,-90.00,180.00,-45.00,CLOSED,0
656324.805,0,0,0,1.000,0.942,0.992,-90.00,180.00,-45.00,CLOSED,0
656324.854,0,0,0,1.000,0.969,0.995,-90.00,180.00,-45.00,CLOSED,0
656324.904,0,0,0,1.000,0.981,0.997,-90.00,180.00,-45.00,CLOSED,0
656324.954,0,0,0,1.000,0.989,0.998,-90.00,180.00,-45.00,CLOSED,0
656325.003,0,0,0,1.000,0.992,0.998,-90.00,180.00,-45.00,CLOSED,0
656325.054,0,0,0,1.000,0.995,0.998,-90.00,180.00,-45.00,CLOSED,0
656325.104,0,0,0,1.000,0.996,0.998,-90.00,180.00,-45.00,CLOSED,0
656325.153,0,0,0,1.000,0.997,0.998,-90.00,180.00,-45.00,CLOSED,0
656325.204,0,0,0,1.000,0.996,0.997,-90.00,180.00,-45.00,CLOSED,0
656325.254,0,0,0,1.000,0.995,0.996,-90.00,180.00,-45.00,CLOSED,0
656325.304,0,0,0,1.000,0.989,0.994,-90.00,180.00,-45.00,CLOSED,0
656325.354,0,0,0,1.000,0.962,0.989,-90.00,180.00,-45.00,CLOSED,0
656325.404,0,0,0,1.000,0.843,0.982,-90.00,180.00,-45.00,CLOSED,0
656325.454,0,0,0,1.000,0.502,0.973,-90.00,180.00,-45.00,CLOSED,0
656325.504,0,0,0,1.000,0.804,0.970,-90.00,180.00,-45.00,CLOSED,0
656325.555,0,0,0,1.000,0.892,0.972,-90.00,180.00,-45.00,CLOSED,0
656325.604,0,0,0,1.000,0.892,0.979,-90.00,180.00,-45.00,CLOSED,0
656325.654,0,0,0,1.000,0.818,0.984,-90.00,180.00,-45.00,CLOSED,0
656325.704,0,0,0,1.000,0.657,0.989,-90.00,180.00,-45.00,CLOSED,0
656325.754,0,0,0,1.000,0.515,0.990,-90.00,180.00,-45.00,CLOSED,0
656325.804,0,0,0,1.000,0.650,0.990,-90.00,180.00,-45.00,CLOSED,0
656325.854,0,0,0,1.000,0.754,0.989,-90.00,180.00,-45.00,CLOSED,0
656325.903,0,0,0,1.000,0.770,0.988,-90.00,180.00,-45.00,CLOSED,0
656325.954,0,0,0,1.000,0.735,0.985,-90.00,180.00,-45.00,CLOSED,0
656326.003,0,0,0,1.000,0.698,0.983,-90.00,180.00,-45.00,CLOSED,0
656326.055,0,0,0,1.000,0.645,0.984,-90.00,180.00,-45.00,CLOSED,0
656326.111,0,0,0,1.000,0.608,0.985,-90.00,180.00,-45.00,CLOSED,0
656326.160,0,0,0,1.000,0.618,0.989,-90.00,180.00,-45.00,CLOSED,0
656326.206,0,0,0,1.000,0.718,0.990,-90.00,180.00,-45.00,CLOSED,0
656326.256,0,0,0,1.000,0.775,0.992,-90.00,180.00,-45.00,CLOSED,0
656326.310,0,0,0,1.000,0.844,0.990,-90.00,180.00,-45.00,CLOSED,0
656326.357,0,0,0,1.000,0.898,0.991,-90.00,180.00,-45.00,CLOSED,0
656326.405,0,0,0,1.000,0.915,0.989,-90.00,180.00,-45.00,CLOSED,0
656326.455,0,0,0,1.000,0.913,0.986,-90.00,180.00,-45.00,CLOSED,0
656326.505,0,0,0,1.000,0.908,0.983,-90.00,180.00,-45.00,CLOSED,0
656326.555,0,0,0,1.000,0.883,0.972,-90.00,180.00,-45.00,CLOSED,0
656326.605,0,0,0,1.000,0.875,0.955,-90.00,180.00,-45.00,CLOSED,0
656326.656,0,0,0,1.000,0.937,0.949,-90.00,180.00,-45.00,CLOSED,0
656326.704,0,0,0,1.000,0.978,0.950,-90.00,180.00,-45.00,CLOSED,0
656326.755,0,0,0,1.000,0.992,0.962,-90.00,180.00,-45.00,CLOSED,0
656326.805,0,0,0,1.000,0.996,0.970,-90.00,180.00,-45.00,CLOSED,0
656326.855,0,0,0,1.000,0.997,0.974,-90.00,180.00,-45.00,CLOSED,0
656326.904,0,0,0,1.000,0.998,0.978,-90.00,180.00,-45.00,CLOSED,0
656326.954,0,0,0,1.000,0.998,0.979,-90.00,180.00,-45.00,CLOSED,0
656327.004,0,0,0,1.000,0.997,0.977,-90.00,180.00,-45.00,CLOSED,0
656327.054,0,0,0,1.000,0.994,0.975,-90.00,180.00,-45.00,CLOSED,0
656327.104,0,0,0,1.000,0.987,0.974,-90.00,180.00,-45.00,CLOSED,0
656327.154,0,0,0,1.000,0.955,0.970,-90.00,180.00,-45.00,CLOSED,0
656327.204,0,0,0,1.000,0.852,0.962,-90.00,180.00,-45.00,CLOSED,0
656327.254,0,0,0,1.000,0.690,0.959,-90.00,180.00,-45.00,CLOSED,0
656327.304,0,0,0,1.000,0.531,0.957,-90.00,180.00,-45.00,CLOSED,0
656327.354,0,0,0,1.000,0.596,0.954,-90.00,180.00,-45.00,CLOSED,0
656327.404,0,0,0,1.000,0.509,0.960,-90.00,180.00,-45.00,CLOSED,0
656327.454,0,0,0,1.000,0.617,0.963,-90.00,180.00,-45.00,CLOSED,0
656327.503,0,0,0,1.000,0.725,0.964,-90.00,180.00,-45.00,CLOSED,0
656327.554,0,0,0,1.000,0.760,0.968,-90.00,180.00,-45.00,CLOSED,0
656327.604,0,0,0,1.000,0.755,0.971,-90.00,180.00,-45.00,CLOSED,0
656327.654,0,0,0,1.000,0.711,0.976,-90.00,180.00,-45.00,CLOSED,0
656327.704,0,0,0,1.000,0.637,0.980,-90.00,180.00,-45.00,CLOSED,0
656327.755,0,0,0,1.000,0.555,0.980,-90.00,180.00,-45.00,CLOSED,0
656327.804,0,0,0,1.000,0.519,0.983,-90.00,180.00,-45.00,CLOSED,0
656327.854,0,0,0,1.000,0.550,0.983,-90.00,180.00,-45.00,CLOSED,0
656327.904,0,0,0,1.000,0.720,0.981,-90.00,180.00,-45.00,CLOSED,0
656327.955,0,0,0,1.000,0.863,0.972,-90.00,180.00,-45.00,CLOSED,0
656328.004,0,0,0,1.000,0.956,0.953,-90.00,180.00,-45.00,CLOSED,0
656328.054,0,0,0,1.000,0.980,0.932,-90.00,180.00,-45.00,CLOSED,0
656328.104,0,0,0,1.000,0.987,0.903,-90.00,180.00,-45.00,CLOSED,0
656328.155,0,0,0,1.000,0.988,0.892,-90.00,180.00,-45.00,CLOSED,0
656328.204,0,0,0,1.000,0.986,0.895,-90.00,180.00,-45.00,CLOSED,0
656328.254,0,0,0,1.000,0.977,0.924,-90.00,180.00,-45.00,CLOSED,0
656328.304,0,0,0,1.000,0.950,0.968,-90.00,180.00,-45.00,CLOSED,0
656328.354,0,0,0,1.000,0.926,0.987,-90.00,180.00,-45.00,CLOSED,0
656328.404,0,0,0,1.000,0.941,0.996,-90.00,180.00,-45.00,CLOSED,0
656328.454,0,0,0,1.000,0.975,0.999,-90.00,180.00,-45.00,CLOSED,0
656328.504,0,0,0,1.000,0.987,0.999,-90.00,180.00,-45.00,CLOSED,0
656328.554,0,0,0,1.000,0.995,0.999,-90.00,180.00,-45.00,CLOSED,0
656328.606,0,0,0,1.000,0.999,0.999,-90.00,180.00,-45.00,CLOSED,0
656328.655,0,0,0,1.000,1.000,0.999,-90.00,180.00,-45.00,CLOSED,0
656328.704,0,0,0,1.000,1.000,0.999,-90.00,180.00,-45.00,CLOSED,0
656328.754,0,0,0,1.000,1.000,0.999,-90.00,180.00,-45.00,CLOSED,0
656328.804,0,0,0,1.000,1.000,1.000,-90.00,180.00,-45.00,CLOSED,0
656328.854,0,0,0,1.000,1.000,1.000,-90.00,180.00,-45.00,CLOSED,0
656328.904,0,0,0,1.000,1.000,1.000,-90.00,180.00,-45.00,CLOSED,0
656328.955,0,0,0,1.000,1.000,1.000,-90.00,180.00,-45.00,CLOSED,0
656329.004,0,0,0,1.000,0.998,1.000,-90.00,180.00,-45.00,CLOSED,0
656329.054,0,0,0,0.999,0.998,1.000,-90.00,180.00,-45.00,CLOSED,0
656329.105,0,0,0,0.999,0.998,1.000,-90.00,180.00,-45.00,CLOSED,0
656329.154,0,0,0,0.999,0.999,1.000,-90.00,180.00,-45.00,CLOSED,0
656329.205,0,0,0,1.000,1.000,1.000,-90.00,180.00,-45.00,CLOSED,0
656329.253,0,0,0,1.000,1.000,1.000,-90.00,180.00,-45.00,CLOSED,0
656329.304,0,0,0,1.000,1.000,1.000,-90.00,180.00,-45.00,CLOSED,0
656329.355,0,0,0,1.000,1.000,1.000,-90.00,180.00,-45.00,CLOSED,0
656329.404,0,0,0,1.000,1.000,1.000,-90.00,180.00,-45.00,CLOSED,0
656329.455,0,0,0,1.000,1.000,1.000,-90.00,180.00,-45.00,CLOSED,0
656329.504,0,0,0,1.000,1.000,1.000,-90.00,180.00,-45.00,CLOSED,0
656329.554,0,0,0,1.000,1.000,1.000,-90.00,180.00,-45.00,CLOSED,0
656329.604,0,0,0,1.000,1.000,1.000,-90.00,180.00,-45.00,CLOSED,0
656329.655,0,0,0,1.000,1.000,1.000,-90.00,180.00,-45.00,CLOSED,0
656329.704,0,0,0,1.000,1.000,1.000,-90.00,180.00,-45.00,CLOSED,0
656329.754,0,0,0,1.000,1.000,1.000,-90.00,180.00,-45.00,CLOSED,0
656329.804,0,0,0,1.000,1.000,1.000,-90.00,180.00,-45.00,CLOSED,0
656329.854,0,0,0,1.000,1.000,1.000,-90.00,180.00,-45.00,CLOSED,0
656329.906,0,0,0,1.000,1.000,1.000,-90.00,180.00,-45.00,CLOSED,0
656329.955,0,0,0,1.000,1.000,1.000,-90.00,180.00,-45.00,CLOSED,0
656330.004,0,0,0,1.000,1.000,1.000,-90.00,180.00,-45.00,CLOSED,0
656330.054,0,0,0,1.000,1.000,1.000,-90.00,180.00,-45.00,CLOSED,0
656330.104,0,0,0,1.000,1.000,1.000,-90.00,180.00,-45.00,CLOSED,0
656330.155,0,0,0,1.000,1.000,1.000,-90.00,180.00,-45.00,CLOSED,0
656330.205,0,0,0,1.000,1.000,1.000,-90.00,180.00,-45.00,CLOSED,0
656330.254,0,0,0,1.000,1.000,1.000,-90.00,180.00,-45.00,CLOSED,0
656330.304,0,0,0,1.000,1.000,1.000,-90.00,180.00,-45.00,CLOSED,0
656330.354,0,0,0,1.000,1.000,1.000,-90.00,180.00,-45.00,CLOSED,0
656330.405,0,0,0,1.000,1.000,1.000,-90.00,180.00,-45.00,CLOSED,0
656330.454,0,0,0,1.000,1.000,1.000,-90.00,180.00,-45.00,CLOSED,0
656330.504,0,0,0,1.000,1.000,1.000,-90.00,180.00,-45.00,CLOSED,0
656330.558,0,0,0,1.000,1.000,1.000,-90.00,180.00,-45.00,CLOSED,0
656330.609,0,0,0,1.000,1.000,1.000,-90.00,180.00,-45.00,CLOSED,0
656330.656,0,0,0,1.000,1.000,1.000,-90.00,180.00,-45.00,CLOSED,0
656330.706,0,0,0,1.000,1.000,1.000,-90.00,180.00,-45.00,CLOSED,0
656330.761,0,0,0,1.000,1.000,1.000,-90.00,180.00,-45.00,CLOSED,0
656330.806,0,0,0,1.000,1.000,1.000,-90.00,180.00,-45.00,CLOSED,0
656330.855,0,0,0,1.000,1.000,1.000,-90.00,180.00,-45.00,CLOSED,0
656330.906,0,0,0,1.000,1.000,1.000,-90.00,180.00,-45.00,CLOSED,0
656330.956,0,0,0,1.000,1.000,1.000,-90.00,180.00,-45.00,CLOSED,0
656331.007,0,0,0,1.000,1.000,1.000,-90.00,180.00,-45.00,CLOSED,0
656331.058,0,0,0,1.000,1.000,1.000,-90.00,180.00,-45.00,CLOSED,0
656331.105,0,0,0,1.000,1.000,1.000,-90.00,180.00,-45.00,CLOSED,0
656331.155,0,0,0,1.000,1.000,1.000,-90.00,180.00,-45.00,CLOSED,0
656331.205,0,0,0,1.000,1.000,1.000,-90.00,180.00,-45.00,CLOSED,0
656331.255,0,0,0,1.000,1.000,1.000,-90.00,180.00,-45.00,CLOSED,0
656331.305,0,0,0,1.000,1.000,1.000,-90.00,180.00,-45.00,CLOSED,0
656331.356,0,0,0,1.000,1.000,1.000,-90.00,180.00,-45.00,CLOSED,0
656331.405,0,0,0,1.000,1.000,1.000,-90.00,180.00,-45.00,CLOSED,0
656331.455,0,0,0,1.000,1.000,1.000,-90.00,180.00,-45.00,CLOSED,0
656331.505,0,0,0,1.000,1.000,1.000,-90.00,180.00,-45.00,CLOSED,0
656331.556,0,0,0,1.000,1.000,1.000,-90.00,180.00,-45.00,CLOSED,0
656331.606,0,0,0,1.000,1.000,1.000,-90.00,180.00,-45.00,CLOSED,0
656331.656,0,0,0,1.000,1.000,1.000,-90.00,180.00,-45.00,CLOSED,0
656331.704,0,0,0,1.000,1.000,1.000,-90.00,180.00,-45.00,CLOSED,0
656331.754,0,0,0,1.000,1.000,1.000,-90.00,180.00,-45.00,CLOSED,0
656331.806,0,0,0,1.000,1.000,1.000,-90.00,180.00,-45.00,CLOSED,0
656331.854,0,0,0,1.000,1.000,1.000,-90.00,180.00,-45.00,CLOSED,0
656331.915,0,0,0,1.000,1.000,1.000,-90.00,180.00,-45.00,CLOSED,0
656331.955,0,0,0,1.000,1.000,1.000,-90.00,180.00,-45.00,CLOSED,0
656332.004,0,0,0,1.000,1.000,1.000,-90.00,180.00,-45.00,CLOSED,0
656332.054,0,0,0,1.000,1.000,1.000,-90.00,180.00,-45.00,CLOSED,0
656332.105,0,0,0,1.000,1.000,1.000,-90.00,180.00,-45.00,CLOSED,0
656332.155,0,0,0,1.000,1.000,1.000,-90.00,180.00,-45.00,CLOSED,0
656332.204,0,0,0,1.000,1.000,1.000,-90.00,180.00,-45.00,CLOSED,0
656332.254,0,0,0,1.000,1.000,1.000,-90.00,180.00,-45.00,CLOSED,0
656332.304,0,0,0,1.000,1.000,1.000,-90.00,180.00,-45.00,CLOSED,0
656332.354,0,0,0,1.000,1.000,1.000,-90.00,180.00,-45.00,CLOSED,0
656332.405,0,0,0,1.000,1.000,1.000,-90.00,180.00,-45.00,CLOSED,0
656332.454,0,0,0,1.000,1.000,1.000,-90.00,180.00,-45.00,CLOSED,0
656332.504,0,0,0,1.000,1.000,1.000,-90.00,180.00,-45.00,CLOSED,0
656332.555,0,0,0,1.000,1.000,1.000,-90.00,180.00,-45.00,CLOSED,0
656332.604,0,0,0,1.000,1.000,1.000,-90.00,180.00,-45.00,CLOSED,0
656332.654,0,0,0,1.000,1.000,1.000,-90.00,180.00,-45.00,CLOSED,0
656332.705,0,0,0,1.000,1.000,1.000,-90.00,180.00,-45.00,CLOSED,0
656332.754,0,0,0,1.000,1.000,1.000,-90.00,180.00,-45.00,CLOSED,0
656332.804,0,0,0,1.000,1.000,1.000,-90.00,180.00,-45.00,CLOSED,0
656332.854,0,0,0,1.000,1.000,1.000,-90.00,180.00,-45.00,CLOSED,0
656332.904,0,0,0,1.000,1.000,1.000,-90.00,180.00,-45.00,CLOSED,0
656332.954,0,0,0,1.000,1.000,1.000,-90.00,180.00,-45.00,CLOSED,0
656333.005,0,0,0,1.000,1.000,1.000,-90.00,180.00,-45.00,CLOSED,0
656333.054,0,0,0,1.000,1.000,1.000,-90.00,180.00,-45.00,CLOSED,0
656333.104,0,0,0,1.000,1.000,1.000,-90.00,180.00,-45.00,CLOSED,0
656333.155,0,0,0,1.000,1.000,1.000,-90.00,180.00,-45.00,CLOSED,0
656333.205,0,0,0,1.000,1.000,1.000,-90.00,180.00,-45.00,CLOSED,0
656333.254,0,0,0,1.000,1.000,1.000,-90.00,180.00,-45.00,CLOSED,0
656333.304,0,0,0,1.000,1.000,1.000,-90.00,180.00,-45.00,CLOSED,0
656333.354,0,0,0,1.000,1.000,1.000,-90.00,180.00,-45.00,CLOSED,0
656333.404,0,0,0,1.000,1.000,1.000,-90.00,180.00,-45.00,CLOSED,0
656333.455,0,0,0,1.000,1.000,1.000,-90.00,180.00,-45.00,CLOSED,0
656333.504,0,0,0,1.000,1.000,1.000,-90.00,180.00,-45.00,CLOSED,0
656333.554,0,0,0,1.000,1.000,1.000,-90.00,180.00,-45.00,CLOSED,0
656333.604,0,0,0,1.000,1.000,1.000,-90.00,180.00,-45.00,CLOSED,0
656333.654,0,0,0,1.000,1.000,1.000,-90.00,180.00,-45.00,CLOSED,0
656333.704,0,0,0,1.000,1.000,1.000,-90.00,180.00,-45.00,CLOSED,0
656333.755,0,0,0,1.000,1.000,1.000,-90.00,180.00,-45.00,CLOSED,0
656333.804,0,0,0,1.000,1.000,1.000,-90.00,180.00,-45.00,CLOSED,0
656333.854,0,0,0,1.000,1.000,1.000,-90.00,180.00,-45.00,CLOSED,0
656333.905,0,0,0,1.000,1.000,1.000,-90.00,180.00,-45.00,CLOSED,0
656333.956,0,0,0,1.000,1.000,1.000,-90.00,180.00,-45.00,CLOSED,0
656334.004,0,0,0,1.000,1.000,1.000,-90.00,180.00,-45.00,CLOSED,0
656334.054,0,0,0,1.000,1.000,1.000,-90.00,180.00,-45.00,CLOSED,0
656334.104,0,0,0,1.000,1.000,1.000,-90.00,180.00,-45.00,CLOSED,0
656334.155,0,0,0,1.000,1.000,1.000,-90.00,180.00,-45.00,CLOSED,0
656334.205,0,0,0,1.000,1.000,1.000,-90.00,180.00,-45.00,CLOSED,0
656334.254,0,0,0,1.000,1.000,1.000,-90.00,180.00,-45.00,CLOSED,0
656334.304,0,0,0,1.000,1.000,1.000,-90.00,180.00,-45.00,CLOSED,0
656334.354,0,0,0,1.000,1.000,1.000,-90.00,180.00,-45.00,CLOSED,0
656334.404,0,0,0,1.000,1.000,1.000,-90.00,180.00,-45.00,CLOSED,0
656334.454,0,0,0,1.000,1.000,1.000,-90.00,180.00,-45.00,CLOSED,0
656334.504,0,0,0,1.000,1.000,1.000,-90.00,180.00,-45.00,CLOSED,0
656334.554,0,0,0,1.000,1.000,1.000,-90.00,180.00,-45.00,CLOSED,0
656334.604,0,0,0,1.000,1.000,1.000,-90.00,180.00,-45.00,CLOSED,0
656334.654,0,0,0,1.000,1.000,1.000,-90.00,180.00,-45.00,CLOSED,0
656334.705,0,0,0,1.000,1.000,1.000,-90.00,180.00,-45.00,CLOSED,0
656334.755,0,0,0,1.000,1.000,1.000,-90.00,180.00,-45.00,CLOSED,0
656334.805,0,0,0,1.000,1.000,1.000,-90.00,180.00,-45.00,CLOSED,0
656334.854,0,0,0,1.000,1.000,1.000,-90.00,180.00,-45.00,CLOSED,0
656334.905,0,0,0,1.000,1.000,1.000,-90.00,180.00,-45.00,CLOSED,0
656334.954,0,0,0,1.000,1.000,1.000,-90.00,180.00,-45.00,CLOSED,0
656335.005,0,0,0,1.000,1.000,1.000,-90.00,180.00,-45.00,CLOSED,0
656335.055,0,0,0,1.000,1.000,1.000,-90.00,180.00,-45.00,CLOSED,0
656335.104,0,0,0,1.000,1.000,1.000,-90.00,180.00,-45.00,CLOSED,0
656335.154,0,0,0,1.000,1.000,1.000,-90.00,180.00,-45.00,CLOSED,0
656335.205,0,0,0,1.000,1.000,1.000,-90.00,180.00,-45.00,CLOSED,0
656335.255,0,0,0,1.000,1.000,1.000,-90.00,180.00,-45.00,CLOSED,0
656335.304,0,0,0,1.000,1.000,1.000,-90.00,180.00,-45.00,CLOSED,0
656335.354,0,0,0,1.000,1.000,1.000,-90.00,180.00,-45.00,CLOSED,0
656335.405,0,0,0,1.000,1.000,1.000,-90.00,180.00,-45.00,CLOSED,0
656335.455,0,0,0,1.000,1.000,1.000,-90.00,180.00,-45.00,CLOSED,0
656335.504,0,0,0,1.000,1.000,1.000,-90.00,180.00,-45.00,CLOSED,0
656335.554,0,0,0,1.000,1.000,1.000,-90.00,180.00,-45.00,CLOSED,0
656335.604,0,0,0,1.000,1.000,1.000,-90.00,180.00,-45.00,CLOSED,0
656335.654,0,0,0,1.000,1.000,1.000,-90.00,180.00,-45.00,CLOSED,0
656335.704,0,0,0,1.000,1.000,1.000,-90.00,180.00,-45.00,CLOSED,0
656335.754,0,0,0,1.000,1.000,1.000,-90.00,180.00,-45.00,CLOSED,0
656335.804,0,0,0,1.000,1.000,1.000,-90.00,180.00,-45.00,CLOSED,0
656335.854,0,0,0,1.000,1.000,1.000,-90.00,180.00,-45.00,CLOSED,0
656335.904,0,0,0,1.000,1.000,1.000,-90.00,180.00,-45.00,CLOSED,0
656335.955,0,0,0,1.000,1.000,1.000,-90.00,180.00,-45.00,CLOSED,0
656336.004,0,0,0,1.000,1.000,1.000,-90.00,180.00,-45.00,CLOSED,0
656336.055,0,0,0,1.000,1.000,1.000,-90.00,180.00,-45.00,CLOSED,0
656336.104,0,0,0,1.000,1.000,1.000,-90.00,180.00,-45.00,CLOSED,0
656336.154,0,0,0,1.000,1.000,1.000,-90.00,180.00,-45.00,CLOSED,0
656336.205,0,0,0,0.999,1.000,1.000,-90.00,180.00,-45.00,CLOSED,0
656336.254,0,0,0,0.992,1.000,1.000,-90.00,180.00,-45.00,CLOSED,0
656336.305,0,0,0,0.991,1.000,1.000,-90.00,180.00,-45.00,CLOSED,0
656336.355,0,0,0,0.997,1.000,1.000,-90.00,180.00,-45.00,CLOSED,0
656336.404,0,0,0,0.992,1.000,1.000,-90.00,180.00,-45.00,CLOSED,0
656336.455,0,0,0,0.989,1.000,1.000,-90.00,180.00,-45.00,CLOSED,0
656336.504,0,0,0,0.995,1.000,1.000,-90.00,180.00,-45.00,CLOSED,0
656336.554,0,0,0,0.987,1.000,1.000,-90.00,180.00,-45.00,CLOSED,0
656336.606,0,0,0,0.986,1.000,1.000,-90.00,180.00,-45.00,CLOSED,0
656336.654,0,0,0,0.989,1.000,1.000,-90.00,180.00,-45.00,CLOSED,0
656336.705,0,0,0,0.998,0.999,1.000,-90.00,180.00,-45.00,CLOSED,0
656336.755,0,0,0,0.999,0.950,1.000,-90.00,180.00,-45.00,CLOSED,0
656336.805,0,0,0,0.999,0.765,1.000,-90.00,180.00,-45.00,CLOSED,0
656336.854,0,0,0,0.995,0.989,1.000,-90.00,180.00,-45.00,CLOSED,0
656336.904,0,0,0,0.985,0.999,1.000,-90.00,180.00,-45.00,CLOSED,0
656336.954,0,0,0,0.989,1.000,1.000,-90.00,180.00,-45.00,CLOSED,0
656337.004,0,0,0,0.994,1.000,1.000,-90.00,180.00,-45.00,CLOSED,0
656337.055,0,0,0,0.997,1.000,1.000,-90.00,180.00,-45.00,CLOSED,0
656337.104,0,0,0,0.999,1.000,1.000,-90.00,180.00,-45.00,CLOSED,0
656337.154,0,0,0,0.999,1.000,1.000,-90.00,180.00,-45.00,CLOSED,0
656337.204,0,0,0,0.996,1.000,1.000,-90.00,180.00,-45.00,CLOSED,0
656337.254,0,0,0,0.999,1.000,1.000,-90.00,180.00,-45.00,CLOSED,0
656337.304,0,0,0,1.000,1.000,1.000,-90.00,180.00,-45.00,CLOSED,0
656337.354,0,0,0,1.000,1.000,1.000,-90.00,180.00,-45.00,CLOSED,0
656337.404,0,0,0,1.000,1.000,0.999,-90.00,180.00,-45.00,CLOSED,0
656337.454,0,0,0,1.000,1.000,0.998,-90.00,180.00,-45.00,CLOSED,0
656337.504,0,0,0,1.000,1.000,0.996,-90.00,180.00,-45.00,CLOSED,0
656337.554,0,0,0,1.000,1.000,0.994,-90.00,180.00,-45.00,CLOSED,0
656337.604,0,0,0,1.000,1.000,0.993,-90.00,180.00,-45.00,CLOSED,0
656337.654,0,0,0,1.000,1.000,0.992,-90.00,180.00,-45.00,CLOSED,0
656337.704,0,1,0,1.000,1.000,0.990,-90.00,90.00,-45.00,CLOSED,1
656337.754,0,1,0,1.000,1.000,0.988,-90.00,90.00,-45.00,CLOSED,0
656337.805,0,1,0,1.000,1.000,0.987,-90.00,90.00,-45.00,CLOSED,0
656337.854,0,1,0,1.000,1.000,0.986,-90.00,90.00,-45.00,CLOSED,0
656337.904,0,1,0,1.000,1.000,0.986,-90.00,90.00,-45.00,CLOSED,0
656337.954,0,1,0,1.000,1.000,0.989,-90.00,90.00,-45.00,CLOSED,0
656338.006,0,1,0,1.000,1.000,0.991,-90.00,90.00,-45.00,CLOSED,0
656338.054,0,1,0,1.000,1.000,0.993,-90.00,90.00,-45.00,CLOSED,0
656338.104,0,1,0,1.000,0.999,0.994,-90.00,90.00,-45.00,CLOSED,0
656338.154,0,1,0,1.000,0.999,0.994,-90.00,90.00,-45.00,CLOSED,0
656338.204,0,1,0,1.000,0.999,0.994,-90.00,90.00,-45.00,CLOSED,0
656338.254,0,1,0,1.000,0.999,0.994,-90.00,90.00,-45.00,CLOSED,0
656338.304,0,1,0,1.000,0.999,0.993,-90.00,90.00,-45.00,CLOSED,0
656338.354,0,1,0,1.000,0.999,0.993,-90.00,90.00,-45.00,CLOSED,0
656338.405,0,1,0,1.000,0.999,0.991,-90.00,90.00,-45.00,CLOSED,0
656338.454,0,1,0,1.000,0.999,0.989,-90.00,90.00,-45.00,CLOSED,0
656338.504,0,1,0,1.000,1.000,0.989,-90.00,90.00,-45.00,CLOSED,0
656338.555,0,1,0,1.000,1.000,0.988,-90.00,90.00,-45.00,CLOSED,0
656338.607,0,1,0,1.000,1.000,0.991,-90.00,90.00,-45.00,CLOSED,0
656338.654,0,1,0,1.000,1.000,0.995,-90.00,90.00,-45.00,CLOSED,0
656338.704,0,1,0,1.000,1.000,0.997,-90.00,90.00,-45.00,CLOSED,0
656338.754,0,1,0,1.000,1.000,0.998,-90.00,90.00,-45.00,CLOSED,0
656338.804,0,1,0,1.000,1.000,0.999,-90.00,90.00,-45.00,CLOSED,0
656338.854,0,1,0,1.000,1.000,0.999,-90.00,90.00,-45.00,CLOSED,0
656338.904,0,1,0,1.000,1.000,0.999,-90.00,90.00,-45.00,CLOSED,0
656338.954,0,1,0,1.000,1.000,0.999,-90.00,90.00,-45.00,CLOSED,0
656339.004,0,1,0,1.000,1.000,0.999,-90.00,90.00,-45.00,CLOSED,0
656339.054,0,1,0,1.000,1.000,0.998,-90.00,90.00,-45.00,CLOSED,0
656339.104,0,1,0,1.000,1.000,0.997,-90.00,90.00,-45.00,CLOSED,0
656339.154,0,1,0,1.000,1.000,0.994,-90.00,90.00,-45.00,CLOSED,0
656339.203,0,1,0,1.000,0.999,0.988,-90.00,90.00,-45.00,CLOSED,0
656339.254,0,1,0,1.000,0.999,0.982,-90.00,90.00,-45.00,CLOSED,0
656339.304,0,1,0,1.000,0.998,0.985,-90.00,90.00,-45.00,CLOSED,0
656339.353,0,1,0,1.000,0.997,0.991,-90.00,90.00,-45.00,CLOSED,0
656339.405,0,1,0,1.000,0.997,0.995,-90.00,90.00,-45.00,CLOSED,0
656339.454,0,1,0,1.000,0.996,0.997,-90.00,90.00,-45.00,CLOSED,0
656339.504,0,1,0,1.000,0.995,0.998,-90.00,90.00,-45.00,CLOSED,0
656339.554,0,1,0,1.000,0.996,0.999,-90.00,90.00,-45.00,CLOSED,0
656339.604,0,1,0,1.000,0.997,0.998,-90.00,90.00,-45.00,CLOSED,0
656339.654,0,1,0,1.000,0.997,0.998,-90.00,90.00,-45.00,CLOSED,0
656339.704,0,1,0,1.000,0.998,0.997,-90.00,90.00,-45.00,CLOSED,0
656339.754,0,1,0,1.000,0.998,0.994,-90.00,90.00,-45.00,CLOSED,0
656339.804,0,1,0,1.000,0.999,0.988,-90.00,90.00,-45.00,CLOSED,0
656339.854,0,1,0,1.000,0.999,0.979,-90.00,90.00,-45.00,CLOSED,0
656339.905,0,1,0,1.000,0.999,0.976,-90.00,90.00,-45.00,CLOSED,0
656339.954,0,1,0,1.000,0.999,0.981,-90.00,90.00,-45.00,CLOSED,0
656340.005,0,1,0,1.000,0.999,0.984,-90.00,90.00,-45.00,CLOSED,0
656340.054,0,1,0,1.000,0.998,0.988,-90.00,90.00,-45.00,CLOSED,0
656340.104,0,1,0,1.000,0.998,0.993,-90.00,90.00,-45.00,CLOSED,0
656340.154,0,1,0,1.000,0.998,0.995,-90.00,90.00,-45.00,CLOSED,0
656340.205,0,1,0,1.000,0.998,0.997,-90.00,90.00,-45.00,CLOSED,0
656340.254,0,1,0,1.000,0.999,0.998,-90.00,90.00,-45.00,CLOSED,0
656340.304,0,1,0,1.000,0.999,0.998,-90.00,90.00,-45.00,CLOSED,0
656340.354,0,1,0,1.000,0.999,0.999,-90.00,90.00,-45.00,CLOSED,0
656340.404,0,1,0,1.000,0.999,0.999,-90.00,90.00,-45.00,CLOSED,0
656340.455,0,1,0,1.000,1.000,0.999,-90.00,90.00,-45.00,CLOSED,0
656340.504,0,1,0,1.000,1.000,0.998,-90.00,90.00,-45.00,CLOSED,0
656340.554,0,1,0,1.000,1.000,0.998,-90.00,90.00,-45.00,CLOSED,0
656340.604,0,1,0,1.000,1.000,0.998,-90.00,90.00,-45.00,CLOSED,0
656340.654,0,1,0,1.000,1.000,0.999,-90.00,90.00,-45.00,CLOSED,0
656340.704,0,1,0,1.000,1.000,0.999,-90.00,90.00,-45.00,CLOSED,0
656340.754,0,1,0,1.000,1.000,1.000,-90.00,90.00,-45.00,CLOSED,0
656340.804,0,1,0,1.000,1.000,1.000,-90.00,90.00,-45.00,CLOSED,0
656340.854,0,1,0,1.000,1.000,1.000,-90.00,90.00,-45.00,CLOSED,0
656340.905,0,1,0,1.000,1.000,1.000,-90.00,90.00,-45.00,CLOSED,0
656340.954,0,1,0,1.000,1.000,1.000,-90.00,90.00,-45.00,CLOSED,0
656341.004,0,1,0,1.000,1.000,1.000,-90.00,90.00,-45.00,CLOSED,0
656341.054,0,1,0,1.000,1.000,1.000,-90.00,90.00,-45.00,CLOSED,0
656341.104,0,1,0,1.000,1.000,1.000,-90.00,90.00,-45.00,CLOSED,0
656341.154,0,1,0,1.000,1.000,1.000,-90.00,90.00,-45.00,CLOSED,0
656341.204,0,1,0,1.000,1.000,1.000,-90.00,90.00,-45.00,CLOSED,0
656341.255,0,1,0,1.000,1.000,0.999,-90.00,90.00,-45.00,CLOSED,0
656341.304,0,1,0,1.000,1.000,0.999,-90.00,90.00,-45.00,CLOSED,0
656341.354,0,1,0,1.000,1.000,0.999,-90.00,90.00,-45.00,CLOSED,0
656341.407,0,1,0,1.000,1.000,0.999,-90.00,90.00,-45.00,CLOSED,0
656341.454,0,1,0,1.000,1.000,0.999,-90.00,90.00,-45.00,CLOSED,0
656341.504,0,1,0,1.000,1.000,0.999,-90.00,90.00,-45.00,CLOSED,0
656341.555,0,1,0,1.000,1.000,0.999,-90.00,90.00,-45.00,CLOSED,0
656341.604,0,1,0,1.000,1.000,0.999,-90.00,90.00,-45.00,CLOSED,0
656341.655,0,1,0,1.000,1.000,0.999,-90.00,90.00,-45.00,CLOSED,0
656341.704,0,1,0,1.000,1.000,0.999,-90.00,90.00,-45.00,CLOSED,0
656341.754,0,1,0,1.000,1.000,0.998,-90.00,90.00,-45.00,CLOSED,0
656341.805,0,1,0,1.000,1.000,0.996,-90.00,90.00,-45.00,CLOSED,0
656341.854,0,1,0,1.000,0.999,0.992,-90.00,90.00,-45.00,CLOSED,0
656341.904,0,1,0,1.000,0.998,0.985,-90.00,90.00,-45.00,CLOSED,0
656341.954,0,1,0,1.000,0.988,0.978,-90.00,90.00,-45.00,CLOSED,0
656342.004,0,1,0,1.000,0.924,0.974,-90.00,90.00,-45.00,CLOSED,0
656342.054,0,1,0,1.000,0.623,0.976,-90.00,90.00,-45.00,CLOSED,0
656342.105,0,1,0,1.000,0.959,0.989,-90.00,90.00,-45.00,CLOSED,0
656342.154,0,1,0,1.000,0.995,0.995,-90.00,90.00,-45.00,CLOSED,0
656342.205,0,1,0,1.000,0.999,0.996,-90.00,90.00,-45.00,CLOSED,0
656342.254,0,1,0,1.000,1.000,0.998,-90.00,90.00,-45.00,CLOSED,0
656342.304,0,1,0,1.000,1.000,0.998,-90.00,90.00,-45.00,CLOSED,0
656342.354,0,1,0,1.000,1.000,0.999,-90.00,90.00,-45.00,CLOSED,0
656342.404,0,1,0,1.000,1.000,0.999,-90.00,90.00,-45.00,CLOSED,0
656342.455,0,1,0,1.000,1.000,0.999,-90.00,90.00,-45.00,CLOSED,0
656342.504,0,1,0,1.000,0.999,1.000,-90.00,90.00,-45.00,CLOSED,0
656342.554,0,1,0,1.000,0.999,1.000,-90.00,90.00,-45.00,CLOSED,0
656342.604,0,1,0,1.000,0.998,1.000,-90.00,90.00,-45.00,CLOSED,0
656342.654,0,1,0,1.000,0.996,1.000,-90.00,90.00,-45.00,CLOSED,0
656342.704,0,1,0,0.999,0.994,1.000,-90.00,90.00,-45.00,CLOSED,0
656342.754,0,1,0,0.999,0.986,1.000,-90.00,90.00,-45.00,CLOSED,0
656342.804,0,1,0,0.999,0.981,1.000,-90.00,90.00,-45.00,CLOSED,0
656342.854,0,1,0,0.999,0.985,1.000,-90.00,90.00,-45.00,CLOSED,0
656342.904,0,1,0,0.999,0.996,1.000,-90.00,90.00,-45.00,CLOSED,0
656342.954,0,1,0,0.997,0.996,1.000,-90.00,90.00,-45.00,CLOSED,0
656343.005,0,0,0,0.997,1.000,1.000,-90.00,180.00,-45.00,CLOSED,1
656343.054,0,0,0,0.994,1.000,1.000,-90.00,180.00,-45.00,CLOSED,0
656343.104,0,0,0,0.998,1.000,1.000,-90.00,180.00,-45.00,CLOSED,0
656343.154,0,0,0,0.999,1.000,1.000,-90.00,180.00,-45.00,CLOSED,0
656343.206,0,0,0,1.000,1.000,1.000,-90.00,180.00,-45.00,CLOSED,0
656343.254,0,0,0,1.000,1.000,1.000,-90.00,180.00,-45.00,CLOSED,0
656343.305,0,0,0,1.000,1.000,1.000,-90.00,180.00,-45.00,CLOSED,0
656343.354,0,0,0,1.000,1.000,1.000,-90.00,180.00,-45.00,CLOSED,0
656343.405,0,0,0,0.999,1.000,1.000,-90.00,180.00,-45.00,CLOSED,0
656343.456,0,0,0,1.000,1.000,1.000,-90.00,180.00,-45.00,CLOSED,0
656343.504,0,0,0,1.000,1.000,1.000,-90.00,180.00,-45.00,CLOSED,0
656343.554,0,0,0,1.000,1.000,1.000,-90.00,180.00,-45.00,CLOSED,0
656343.604,0,0,0,1.000,1.000,1.000,-90.00,180.00,-45.00,CLOSED,0
656343.654,0,0,0,1.000,1.000,1.000,-90.00,180.00,-45.00,CLOSED,0
656343.706,0,0,0,1.000,1.000,1.000,-90.00,180.00,-45.00,CLOSED,0
656343.754,0,0,0,1.000,1.000,1.000,-90.00,180.00,-45.00,CLOSED,0
656343.804,0,0,0,1.000,1.000,1.000,-90.00,180.00,-45.00,CLOSED,0
656343.854,0,0,0,1.000,1.000,1.000,-90.00,180.00,-45.00,CLOSED,0
656343.904,0,0,0,1.000,1.000,1.000,-90.00,180.00,-45.00,CLOSED,0
656343.954,0,0,0,1.000,1.000,1.000,-90.00,180.00,-45.00,CLOSED,0
656344.004,0,0,0,1.000,1.000,1.000,-90.00,180.00,-45.00,CLOSED,0
656344.055,0,0,0,1.000,1.000,1.000,-90.00,180.00,-45.00,CLOSED,0
656344.104,0,0,0,1.000,1.000,1.000,-90.00,180.00,-45.00,CLOSED,0
656344.155,0,0,0,1.000,1.000,1.000,-90.00,180.00,-45.00,CLOSED,0
656344.204,0,0,0,1.000,1.000,1.000,-90.00,180.00,-45.00,CLOSED,0
656344.253,0,0,0,1.000,1.000,1.000,-90.00,180.00,-45.00,CLOSED,0
656344.304,0,0,0,1.000,1.000,1.000,-90.00,180.00,-45.00,CLOSED,0
656344.354,0,0,0,1.000,1.000,1.000,-90.00,180.00,-45.00,CLOSED,0
656344.404,0,0,0,1.000,1.000,1.000,-90.00,180.00,-45.00,CLOSED,0
656344.454,0,0,0,1.000,1.000,1.000,-90.00,180.00,-45.00,CLOSED,0
656344.504,0,0,0,1.000,1.000,1.000,-90.00,180.00,-45.00,CLOSED,0
656344.554,0,0,0,1.000,1.000,1.000,-90.00,180.00,-45.00,CLOSED,0
656344.604,0,0,0,1.000,1.000,1.000,-90.00,180.00,-45.00,CLOSED,0
656344.654,0,0,0,1.000,1.000,1.000,-90.00,180.00,-45.00,CLOSED,0
656344.704,0,0,0,1.000,1.000,1.000,-90.00,180.00,-45.00,CLOSED,0
656344.754,0,0,0,1.000,1.000,1.000,-90.00,180.00,-45.00,CLOSED,0
656344.805,0,0,0,1.000,1.000,1.000,-90.00,180.00,-45.00,CLOSED,0
656344.854,0,0,0,1.000,1.000,1.000,-90.00,180.00,-45.00,CLOSED,0
656344.905,0,0,0,1.000,1.000,1.000,-90.00,180.00,-45.00,CLOSED,0
656344.954,0,0,0,1.000,1.000,1.000,-90.00,180.00,-45.00,CLOSED,0
656345.004,0,0,0,1.000,1.000,1.000,-90.00,180.00,-45.00,CLOSED,0
656345.054,0,0,0,1.000,1.000,1.000,-90.00,180.00,-45.00,CLOSED,0
656345.106,0,0,0,1.000,1.000,1.000,-90.00,180.00,-45.00,CLOSED,0
656345.154,0,0,0,1.000,1.000,1.000,-90.00,180.00,-45.00,CLOSED,0
656345.203,0,0,0,1.000,1.000,1.000,-90.00,180.00,-45.00,CLOSED,0
656345.254,0,0,0,1.000,1.000,1.000,-90.00,180.00,-45.00,CLOSED,0
656345.304,0,0,0,1.000,1.000,1.000,-90.00,180.00,-45.00,CLOSED,0
656345.354,0,0,0,1.000,1.000,1.000,-90.00,180.00,-45.00,CLOSED,0
656345.404,0,0,0,1.000,1.000,1.000,-90.00,180.00,-45.00,CLOSED,0
656345.454,0,0,0,1.000,1.000,1.000,-90.00,180.00,-45.00,CLOSED,0
656345.505,0,0,0,1.000,1.000,1.000,-90.00,180.00,-45.00,CLOSED,0
656345.554,0,0,0,1.000,1.000,1.000,-90.00,180.00,-45.00,CLOSED,0
656345.603,0,0,0,1.000,1.000,1.000,-90.00,180.00,-45.00,CLOSED,0
656345.654,0,0,0,1.000,1.000,1.000,-90.00,180.00,-45.00,CLOSED,0
656345.704,0,0,0,1.000,1.000,1.000,-90.00,180.00,-45.00,CLOSED,0
656345.754,0,0,0,1.000,1.000,1.000,-90.00,180.00,-45.00,CLOSED,0
656345.804,0,0,0,1.000,1.000,1.000,-90.00,180.00,-45.00,CLOSED,0
656345.854,0,0,0,1.000,1.000,1.000,-90.00,180.00,-45.00,CLOSED,0
656345.905,0,0,0,1.000,1.000,1.000,-90.00,180.00,-45.00,CLOSED,0
656345.954,0,0,0,1.000,1.000,1.000,-90.00,180.00,-45.00,CLOSED,0
656346.006,0,0,0,1.000,1.000,1.000,-90.00,180.00,-45.00,CLOSED,0
656346.054,0,0,0,1.000,1.000,1.000,-90.00,180.00,-45.00,CLOSED,0
656346.103,0,0,0,1.000,1.000,1.000,-90.00,180.00,-45.00,CLOSED,0
656346.153,0,0,0,1.000,1.000,1.000,-90.00,180.00,-45.00,CLOSED,0
656346.204,0,0,0,1.000,1.000,1.000,-90.00,180.00,-45.00,CLOSED,0
656346.254,0,0,0,1.000,1.000,1.000,-90.00,180.00,-45.00,CLOSED,0
656346.304,0,0,0,1.000,1.000,1.000,-90.00,180.00,-45.00,CLOSED,0
656346.354,0,0,0,1.000,1.000,1.000,-90.00,180.00,-45.00,CLOSED,0
656346.405,0,0,0,1.000,1.000,1.000,-90.00,180.00,-45.00,CLOSED,0
656346.454,0,0,0,1.000,1.000,1.000,-90.00,180.00,-45.00,CLOSED,0
656346.504,0,0,0,1.000,1.000,1.000,-90.00,180.00,-45.00,CLOSED,0
656346.555,0,0,0,1.000,1.000,1.000,-90.00,180.00,-45.00,CLOSED,0
656346.604,0,0,0,1.000,1.000,1.000,-90.00,180.00,-45.00,CLOSED,0
656346.653,0,0,0,1.000,1.000,1.000,-90.00,180.00,-45.00,CLOSED,0
656346.703,0,0,0,1.000,1.000,1.000,-90.00,180.00,-45.00,CLOSED,0
656346.756,0,0,0,1.000,1.000,1.000,-90.00,180.00,-45.00,CLOSED,0
656346.805,0,0,0,1.000,1.000,1.000,-90.00,180.00,-45.00,CLOSED,0
656346.854,0,0,0,1.000,1.000,1.000,-90.00,180.00,-45.00,CLOSED,0
656346.905,0,0,0,1.000,1.000,1.000,-90.00,180.00,-45.00,CLOSED,0
656346.954,0,0,0,1.000,1.000,1.000,-90.00,180.00,-45.00,CLOSED,0
656347.009,0,0,0,1.000,1.000,1.000,-90.00,180.00,-45.00,CLOSED,0
656347.060,0,0,0,1.000,1.000,1.000,-90.00,180.00,-45.00,CLOSED,0
656347.104,0,0,0,1.000,1.000,1.000,-90.00,180.00,-45.00,CLOSED,0
656347.154,0,0,0,1.000,1.000,1.000,-90.00,180.00,-45.00,CLOSED,0
656347.204,0,0,0,1.000,1.000,1.000,-90.00,180.00,-45.00,CLOSED,0
656347.254,0,0,0,1.000,1.000,1.000,-90.00,180.00,-45.00,CLOSED,0
656347.304,0,0,0,1.000,1.000,1.000,-90.00,180.00,-45.00,CLOSED,0
656347.354,0,0,0,1.000,1.000,1.000,-90.00,180.00,-45.00,CLOSED,0
656347.404,0,0,0,1.000,1.000,1.000,-90.00,180.00,-45.00,CLOSED,0
656347.454,0,0,0,1.000,1.000,1.000,-90.00,180.00,-45.00,CLOSED,0
656347.504,0,0,0,1.000,1.000,1.000,-90.00,180.00,-45.00,CLOSED,0
656347.554,0,0,0,1.000,1.000,1.000,-90.00,180.00,-45.00,CLOSED,0
656347.604,0,0,0,1.000,1.000,1.000,-90.00,180.00,-45.00,CLOSED,0
656347.654,0,0,0,1.000,1.000,1.000,-90.00,180.00,-45.00,CLOSED,0
656347.718,0,0,0,1.000,1.000,1.000,-90.00,180.00,-45.00,CLOSED,0
656347.759,0,0,0,1.000,1.000,1.000,-90.00,180.00,-45.00,CLOSED,0
656347.804,0,0,0,1.000,1.000,1.000,-90.00,180.00,-45.00,CLOSED,0
656347.854,0,0,0,1.000,1.000,1.000,-90.00,180.00,-45.00,CLOSED,0
656347.904,0,0,0,1.000,1.000,1.000,-90.00,180.00,-45.00,CLOSED,0
656347.954,0,0,0,1.000,1.000,1.000,-90.00,180.00,-45.00,CLOSED,0
656348.004,0,0,0,1.000,1.000,1.000,-90.00,180.00,-45.00,CLOSED,0
656348.054,0,0,0,1.000,1.000,1.000,-90.00,180.00,-45.00,CLOSED,0
656348.104,0,0,0,1.000,1.000,1.000,-90.00,180.00,-45.00,CLOSED,0
656348.154,0,0,0,1.000,1.000,1.000,-90.00,180.00,-45.00,CLOSED,0
656348.205,0,0,0,1.000,1.000,1.000,-90.00,180.00,-45.00,CLOSED,0
656348.254,0,0,0,1.000,1.000,1.000,-90.00,180.00,-45.00,CLOSED,0
656348.304,0,0,0,1.000,1.000,1.000,-90.00,180.00,-45.00,CLOSED,0
656348.354,0,0,0,1.000,1.000,1.000,-90.00,180.00,-45.00,CLOSED,0
656348.404,0,0,0,1.000,1.000,1.000,-90.00,180.00,-45.00,CLOSED,0
656348.454,0,0,0,1.000,1.000,1.000,-90.00,180.00,-45.00,CLOSED,0
656348.503,0,0,0,1.000,1.000,1.000,-90.00,180.00,-45.00,CLOSED,0
656348.554,0,0,0,1.000,1.000,1.000,-90.00,180.00,-45.00,CLOSED,0
656348.604,0,0,0,1.000,1.000,1.000,-90.00,180.00,-45.00,CLOSED,0
656348.654,0,0,0,1.000,1.000,1.000,-90.00,180.00,-45.00,CLOSED,0
656348.704,0,0,0,1.000,1.000,1.000,-90.00,180.00,-45.00,CLOSED,0
656348.754,0,0,0,1.000,1.000,1.000,-90.00,180.00,-45.00,CLOSED,0
656348.803,0,0,0,1.000,1.000,1.000,-90.00,180.00,-45.00,CLOSED,0
656348.857,0,0,0,1.000,1.000,1.000,-90.00,180.00,-45.00,CLOSED,0
656348.904,0,0,0,1.000,1.000,1.000,-90.00,180.00,-45.00,CLOSED,0
656348.954,0,0,0,1.000,1.000,1.000,-90.00,180.00,-45.00,CLOSED,0
656349.004,0,0,0,1.000,1.000,1.000,-90.00,180.00,-45.00,CLOSED,0
656349.054,0,0,0,1.000,1.000,1.000,-90.00,180.00,-45.00,CLOSED,0
656349.104,0,0,0,1.000,1.000,1.000,-90.00,180.00,-45.00,CLOSED,0
656349.154,0,0,0,1.000,1.000,1.000,-90.00,180.00,-45.00,CLOSED,0
656349.204,0,0,0,1.000,1.000,1.000,-90.00,180.00,-45.00,CLOSED,0
656349.254,0,0,0,1.000,1.000,1.000,-90.00,180.00,-45.00,CLOSED,0
656349.304,0,0,0,1.000,1.000,1.000,-90.00,180.00,-45.00,CLOSED,0
656349.354,0,0,0,1.000,1.000,1.000,-90.00,180.00,-45.00,CLOSED,0
656349.405,0,0,0,0.999,1.000,1.000,-90.00,180.00,-45.00,CLOSED,0
656349.454,0,0,0,0.858,1.000,1.000,-90.00,180.00,-45.00,CLOSED,0
656349.504,0,0,0,0.484,1.000,1.000,-90.00,180.00,-45.00,CLOSED,0
656349.554,0,0,0,0.481,1.000,1.000,-90.00,180.00,-45.00,CLOSED,0
656349.604,0,0,0,0.604,1.000,1.000,-90.00,180.00,-45.00,CLOSED,0
656349.654,0,0,0,0.670,1.000,1.000,-90.00,180.00,-45.00,CLOSED,0
656349.704,0,0,0,0.776,1.000,1.000,-90.00,180.00,-45.00,CLOSED,0
656349.754,0,0,0,0.937,1.000,1.000,-90.00,180.00,-45.00,CLOSED,0
656349.804,0,0,0,0.997,1.000,1.000,-90.00,180.00,-45.00,CLOSED,0
656349.854,0,0,0,1.000,1.000,1.000,-90.00,180.00,-45.00,CLOSED,0
656349.905,0,0,0,1.000,1.000,1.000,-90.00,180.00,-45.00,CLOSED,0
656349.954,0,0,0,1.000,1.000,1.000,-90.00,180.00,-45.00,CLOSED,0
656350.004,3,0,0,1.000,1.000,1.000,-90.00,180.00,-45.00,OPEN,0
656350.054,3,0,0,1.000,1.000,1.000,-90.00,180.00,-45.00,OPEN,0
656350.104,3,0,0,1.000,1.000,1.000,-90.00,180.00,-45.00,OPEN,0
656350.154,3,0,0,1.000,1.000,1.000,-90.00,180.00,-45.00,OPEN,0
656350.204,3,0,0,1.000,1.000,1.000,-90.00,180.00,-45.00,OPEN,0
656350.254,3,0,0,1.000,1.000,1.000,-90.00,180.00,-45.00,OPEN,0
656350.304,3,0,0,1.000,1.000,1.000,-90.00,180.00,-45.00,OPEN,0
656350.354,3,0,0,1.000,1.000,1.000,-90.00,180.00,-45.00,OPEN,0
656350.404,3,0,0,1.000,1.000,1.000,-90.00,180.00,-45.00,OPEN,0
656350.454,3,0,0,1.000,1.000,1.000,-90.00,180.00,-45.00,OPEN,0
656350.504,3,0,0,1.000,1.000,1.000,-90.00,180.00,-45.00,OPEN,0
656350.554,3,0,0,1.000,1.000,1.000,-90.00,180.00,-45.00,OPEN,0
656350.604,3,0,0,1.000,1.000,1.000,-90.00,180.00,-45.00,OPEN,0
656350.654,3,0,0,1.000,1.000,1.000,-90.00,180.00,-45.00,OPEN,0
656350.704,3,0,0,1.000,1.000,1.000,-90.00,180.00,-45.00,OPEN,0
656350.754,3,0,0,1.000,1.000,1.000,-90.00,180.00,-45.00,OPEN,0
656350.804,3,0,0,1.000,1.000,1.000,-90.00,180.00,-45.00,OPEN,0
656350.854,3,0,0,1.000,1.000,1.000,-90.00,180.00,-45.00,OPEN,0
656350.904,3,0,0,1.000,1.000,1.000,-90.00,180.00,-45.00,OPEN,0
656350.954,3,0,0,1.000,1.000,1.000,-90.00,180.00,-45.00,OPEN,0
656351.004,3,0,0,1.000,1.000,1.000,-90.00,180.00,-45.00,OPEN,0
656351.054,3,0,0,1.000,1.000,1.000,-90.00,180.00,-45.00,OPEN,0
656351.104,3,0,0,1.000,1.000,1.000,-90.00,180.00,-45.00,OPEN,0
656351.154,3,0,0,1.000,1.000,1.000,-90.00,180.00,-45.00,OPEN,0
656351.204,3,0,0,1.000,1.000,1.000,-90.00,180.00,-45.00,OPEN,0
656351.254,3,0,0,1.000,1.000,1.000,-90.00,180.00,-45.00,OPEN,0
656351.304,3,0,0,1.000,1.000,1.000,-90.00,180.00,-45.00,OPEN,0
656351.354,3,0,0,1.000,1.000,1.000,-90.00,180.00,-45.00,OPEN,0
656351.404,3,0,0,1.000,1.000,1.000,-90.00,180.00,-45.00,OPEN,0
656351.454,3,0,0,1.000,1.000,1.000,-90.00,180.00,-45.00,OPEN,0
656351.504,3,0,0,1.000,1.000,1.000,-90.00,180.00,-45.00,OPEN,0
656351.554,3,0,0,1.000,1.000,1.000,-90.00,180.00,-45.00,OPEN,0
656351.606,3,0,0,1.000,1.000,1.000,-90.00,180.00,-45.00,OPEN,0
656351.654,3,0,0,1.000,1.000,1.000,-90.00,180.00,-45.00,OPEN,0
656351.704,3,0,0,1.000,1.000,1.000,-90.00,180.00,-45.00,OPEN,0
656351.754,3,0,0,1.000,1.000,1.000,-90.00,180.00,-45.00,OPEN,0
656351.804,3,0,0,1.000,1.000,1.000,-90.00,180.00,-45.00,OPEN,0
656351.854,3,0,0,1.000,1.000,1.000,-90.00,180.00,-45.00,OPEN,0
656351.904,3,0,0,1.000,1.000,1.000,-90.00,180.00,-45.00,OPEN,0
656351.954,3,0,0,1.000,1.000,1.000,-90.00,180.00,-45.00,OPEN,0
656352.005,3,0,0,1.000,1.000,1.000,-90.00,180.00,-45.00,OPEN,0
656352.054,3,0,0,1.000,1.000,1.000,-90.00,180.00,-45.00,OPEN,0
656352.104,3,0,0,1.000,1.000,1.000,-90.00,180.00,-45.00,OPEN,0
656352.154,3,0,0,1.000,1.000,1.000,-90.00,180.00,-45.00,OPEN,0
656352.204,3,0,0,1.000,1.000,1.000,-90.00,180.00,-45.00,OPEN,0
656352.254,3,0,0,1.000,1.000,1.000,-90.00,180.00,-45.00,OPEN,0
656352.305,3,0,0,1.000,1.000,1.000,-90.00,180.00,-45.00,OPEN,0
656352.354,3,0,0,1.000,1.000,1.000,-90.00,180.00,-45.00,OPEN,0
656352.404,3,0,0,1.000,1.000,1.000,-90.00,180.00,-45.00,OPEN,0
656352.454,3,0,0,1.000,1.000,1.000,-90.00,180.00,-45.00,OPEN,0
656352.504,3,0,0,1.000,1.000,1.000,-90.00,180.00,-45.00,OPEN,0
656352.554,3,0,0,1.000,1.000,1.000,-90.00,180.00,-45.00,OPEN,0
656352.604,3,0,0,1.000,1.000,1.000,-90.00,180.00,-45.00,OPEN,0
656352.654,3,0,0,1.000,1.000,1.000,-90.00,180.00,-45.00,OPEN,0
656352.705,3,0,0,1.000,1.000,1.000,-90.00,180.00,-45.00,OPEN,0
656352.754,3,0,0,1.000,1.000,1.000,-90.00,180.00,-45.00,OPEN,0
656352.804,3,0,0,1.000,1.000,1.000,-90.00,180.00,-45.00,OPEN,0
656352.854,3,0,0,1.000,1.000,1.000,-90.00,180.00,-45.00,OPEN,0
656352.904,3,0,0,1.000,1.000,1.000,-90.00,180.00,-45.00,OPEN,0
656352.954,3,0,0,1.000,1.000,1.000,-90.00,180.00,-45.00,OPEN,0
656353.004,3,0,0,1.000,1.000,1.000,-90.00,180.00,-45.00,OPEN,0
656353.054,3,0,0,1.000,1.000,1.000,-90.00,180.00,-45.00,OPEN,0
656353.104,3,0,0,1.000,1.000,1.000,-90.00,180.00,-45.00,OPEN,0
656353.154,3,0,0,1.000,1.000,1.000,-90.00,180.00,-45.00,OPEN,0
656353.204,3,0,0,1.000,1.000,1.000,-90.00,180.00,-45.00,OPEN,0
656353.255,3,0,0,1.000,1.000,1.000,-90.00,180.00,-45.00,OPEN,0
656353.304,3,0,0,1.000,1.000,1.000,-90.00,180.00,-45.00,OPEN,0
656353.354,3,0,0,1.000,1.000,1.000,-90.00,180.00,-45.00,OPEN,0
656353.404,3,0,0,1.000,1.000,1.000,-90.00,180.00,-45.00,OPEN,0
656353.455,3,0,0,1.000,1.000,1.000,-90.00,180.00,-45.00,OPEN,0
656353.504,3,0,0,1.000,1.000,1.000,-90.00,180.00,-45.00,OPEN,0
656353.554,3,0,0,1.000,1.000,1.000,-90.00,180.00,-45.00,OPEN,0
656353.605,3,0,0,1.000,1.000,1.000,-90.00,180.00,-45.00,OPEN,0
656353.654,3,0,0,1.000,1.000,1.000,-90.00,180.00,-45.00,OPEN,0
656353.704,3,0,0,1.000,1.000,1.000,-90.00,180.00,-45.00,OPEN,0
656353.756,3,0,0,1.000,1.000,1.000,-90.00,180.00,-45.00,OPEN,0
656353.804,3,0,0,1.000,1.000,1.000,-90.00,180.00,-45.00,OPEN,0
656353.854,3,0,0,1.000,1.000,1.000,-90.00,180.00,-45.00,OPEN,0
656353.904,3,0,0,1.000,1.000,1.000,-90.00,180.00,-45.00,OPEN,0
656353.954,3,0,0,1.000,1.000,1.000,-90.00,180.00,-45.00,OPEN,0
656354.004,3,0,0,1.000,1.000,1.000,-90.00,180.00,-45.00,OPEN,0
656354.054,3,0,0,1.000,1.000,1.000,-90.00,180.00,-45.00,OPEN,0
656354.104,3,0,0,1.000,1.000,1.000,-90.00,180.00,-45.00,OPEN,0
656354.154,3,0,0,1.000,1.000,1.000,-90.00,180.00,-45.00,OPEN,0
656354.204,3,0,0,1.000,1.000,1.000,-90.00,180.00,-45.00,OPEN,0
656354.254,3,0,0,1.000,1.000,1.000,-90.00,180.00,-45.00,OPEN,0
656354.304,3,0,0,1.000,1.000,1.000,-90.00,180.00,-45.00,OPEN,0
656354.354,3,0,0,1.000,1.000,1.000,-90.00,180.00,-45.00,OPEN,0
656354.404,3,0,0,1.000,1.000,1.000,-90.00,180.00,-45.00,OPEN,0
656354.454,3,0,0,1.000,1.000,1.000,-90.00,180.00,-45.00,OPEN,0
656354.504,3,0,0,1.000,1.000,1.000,-90.00,180.00,-45.00,OPEN,0
656354.554,3,0,0,1.000,1.000,1.000,-90.00,180.00,-45.00,OPEN,0
656354.605,3,0,0,1.000,1.000,1.000,-90.00,180.00,-45.00,OPEN,0
656354.654,3,0,0,1.000,1.000,1.000,-90.00,180.00,-45.00,OPEN,0
656354.704,3,0,0,1.000,1.000,1.000,-90.00,180.00,-45.00,OPEN,0
656354.754,3,0,0,1.000,1.000,1.000,-90.00,180.00,-45.00,OPEN,0
656354.804,3,0,0,1.000,1.000,1.000,-90.00,180.00,-45.00,OPEN,0
656354.854,3,0,0,1.000,1.000,1.000,-90.00,180.00,-45.00,OPEN,0
656354.904,3,0,0,1.000,1.000,1.000,-90.00,180.00,-45.00,OPEN,0
656354.954,3,0,0,1.000,1.000,1.000,-90.00,180.00,-45.00,OPEN,0
656355.004,3,0,0,1.000,1.000,1.000,-90.00,180.00,-45.00,OPEN,0
656355.054,3,0,0,1.000,1.000,1.000,-90.00,180.00,-45.00,OPEN,0
656355.104,3,0,0,1.000,1.000,1.000,-90.00,180.00,-45.00,OPEN,0
656355.154,3,0,0,1.000,1.000,1.000,-90.00,180.00,-45.00,OPEN,0
656355.204,3,0,0,1.000,1.000,1.000,-90.00,180.00,-45.00,OPEN,0
656355.254,3,0,0,1.000,1.000,1.000,-90.00,180.00,-45.00,OPEN,0
656355.304,3,0,0,1.000,1.000,1.000,-90.00,180.00,-45.00,OPEN,0
656355.354,3,0,0,0.999,1.000,1.000,-90.00,180.00,-45.00,OPEN,0
656355.407,3,0,0,0.975,1.000,1.000,-90.00,180.00,-45.00,OPEN,0
656355.454,3,0,0,0.869,1.000,1.000,-90.00,180.00,-45.00,OPEN,0
656355.504,3,0,0,0.666,1.000,1.000,-90.00,180.00,-45.00,OPEN,0
656355.553,3,0,0,0.511,1.000,1.000,-90.00,180.00,-45.00,OPEN,0
656355.604,3,0,0,0.589,1.000,1.000,-90.00,180.00,-45.00,OPEN,0
656355.654,3,0,0,0.639,1.000,1.000,-90.00,180.00,-45.00,OPEN,0
656355.704,3,0,0,0.562,1.000,1.000,-90.00,180.00,-45.00,OPEN,0
656355.754,3,0,0,0.920,1.000,1.000,-90.00,180.00,-45.00,OPEN,0
656355.804,3,0,0,1.000,1.000,1.000,-90.00,180.00,-45.00,OPEN,0
656355.854,3,0,0,1.000,1.000,1.000,-90.00,180.00,-45.00,OPEN,0
656355.904,3,0,0,1.000,1.000,1.000,-90.00,180.00,-45.00,OPEN,0
656355.954,3,0,0,1.000,1.000,1.000,-90.00,180.00,-45.00,OPEN,0
656356.004,3,0,0,1.000,1.000,1.000,-90.00,180.00,-45.00,OPEN,0
656356.054,3,0,0,1.000,1.000,1.000,-90.00,180.00,-45.00,OPEN,0
656356.104,0,0,0,1.000,1.000,1.000,-90.00,180.00,-45.00,OPEN,0
656356.154,0,0,0,1.000,1.000,1.000,-90.00,180.00,-45.00,OPEN,0
656356.204,0,0,0,1.000,1.000,1.000,-90.00,180.00,-45.00,OPEN,0
656356.254,0,0,0,1.000,1.000,1.000,-90.00,180.00,-45.00,OPEN,0
656356.303,0,0,0,1.000,1.000,1.000,-90.00,180.00,-45.00,OPEN,0
656356.355,0,0,0,1.000,1.000,1.000,-90.00,180.00,-45.00,OPEN,0
656356.404,0,0,0,1.000,1.000,1.000,-90.00,180.00,-45.00,OPEN,0
656356.454,0,0,0,1.000,1.000,1.000,-90.00,180.00,-45.00,OPEN,0
656356.503,0,0,0,1.000,1.000,1.000,-90.00,180.00,-45.00,OPEN,0
656356.555,0,0,0,1.000,1.000,1.000,-90.00,180.00,-45.00,OPEN,0
656356.604,0,0,0,1.000,1.000,1.000,-90.00,180.00,-45.00,OPEN,0
656356.655,0,0,0,1.000,1.000,1.000,-90.00,180.00,-45.00,OPEN,0
656356.704,0,0,0,1.000,1.000,1.000,-90.00,180.00,-45.00,OPEN,0
656356.754,0,0,0,1.000,1.000,1.000,-90.00,180.00,-45.00,OPEN,0
656356.804,0,0,0,1.000,1.000,1.000,-90.00,180.00,-45.00,OPEN,0
656356.854,0,0,0,1.000,1.000,1.000,-90.00,180.00,-45.00,OPEN,0
656356.904,0,0,0,1.000,1.000,1.000,-90.00,180.00,-45.00,OPEN,0
656356.954,0,0,0,1.000,1.000,1.000,-90.00,180.00,-45.00,OPEN,0
656357.004,0,0,0,1.000,1.000,1.000,-90.00,180.00,-45.00,OPEN,0
656357.054,0,0,0,1.000,1.000,1.000,-90.00,180.00,-45.00,OPEN,0
656357.104,0,0,0,0.999,1.000,1.000,-90.00,180.00,-45.00,OPEN,0
656357.155,0,0,0,1.000,1.000,1.000,-90.00,180.00,-45.00,OPEN,0
656357.204,0,0,0,1.000,1.000,1.000,-90.00,180.00,-45.00,OPEN,0
656357.254,0,0,0,1.000,1.000,1.000,-90.00,180.00,-45.00,OPEN,0
656357.304,0,0,0,1.000,1.000,1.000,-90.00,180.00,-45.00,OPEN,0
656357.354,0,0,0,1.000,1.000,1.000,-90.00,180.00,-45.00,OPEN,0
656357.404,0,0,0,1.000,1.000,1.000,-90.00,180.00,-45.00,OPEN,0
656357.453,0,0,0,1.000,1.000,1.000,-90.00,180.00,-45.00,OPEN,0
656357.504,0,0,0,1.000,1.000,1.000,-90.00,180.00,-45.00,OPEN,0
656357.553,0,0,0,1.000,1.000,1.000,-90.00,180.00,-45.00,OPEN,0
656357.605,0,0,0,1.000,1.000,1.000,-90.00,180.00,-45.00,OPEN,0
656357.654,0,0,0,1.000,1.000,1.000,-90.00,180.00,-45.00,OPEN,0
656357.706,0,0,0,1.000,1.000,1.000,-90.00,180.00,-45.00,OPEN,0
656357.754,0,0,0,1.000,1.000,1.000,-90.00,180.00,-45.00,OPEN,0
656357.804,0,0,0,1.000,1.000,1.000,-90.00,180.00,-45.00,OPEN,0
656357.854,0,0,0,1.000,1.000,1.000,-90.00,180.00,-45.00,OPEN,0
656357.904,0,0,0,1.000,1.000,1.000,-90.00,180.00,-45.00,OPEN,0
656357.954,0,0,0,1.000,1.000,1.000,-90.00,180.00,-45.00,OPEN,0
656358.004,0,0,0,1.000,1.000,1.000,-90.00,180.00,-45.00,OPEN,0
656358.055,0,0,0,1.000,1.000,1.000,-90.00,180.00,-45.00,OPEN,0
656358.104,0,0,0,1.000,1.000,1.000,-90.00,180.00,-45.00,OPEN,0
656358.154,0,0,0,1.000,1.000,1.000,-90.00,180.00,-45.00,OPEN,0
656358.204,0,0,0,1.000,1.000,1.000,-90.00,180.00,-45.00,OPEN,0
656358.257,0,0,0,1.000,1.000,1.000,-90.00,180.00,-45.00,OPEN,0
656358.306,0,0,0,1.000,1.000,1.000,-90.00,180.00,-45.00,OPEN,0
656358.354,0,0,0,1.000,1.000,1.000,-90.00,180.00,-45.00,OPEN,0
656358.404,0,0,0,1.000,1.000,1.000,-90.00,180.00,-45.00,OPEN,0
656358.454,0,0,0,1.000,1.000,1.000,-90.00,180.00,-45.00,OPEN,0
656358.504,0,0,0,1.000,1.000,1.000,-90.00,180.00,-45.00,OPEN,0
656358.554,0,0,0,1.000,1.000,1.000,-90.00,180.00,-45.00,OPEN,0
656358.604,0,0,0,1.000,1.000,1.000,-90.00,180.00,-45.00,OPEN,0
656358.654,0,0,0,1.000,1.000,1.000,-90.00,180.00,-45.00,OPEN,0
656358.704,0,0,0,1.000,1.000,1.000,-90.00,180.00,-45.00,OPEN,0
656358.754,0,0,0,1.000,1.000,1.000,-90.00,180.00,-45.00,OPEN,0
656358.804,0,0,0,1.000,1.000,1.000,-90.00,180.00,-45.00,OPEN,0
656358.854,0,0,0,1.000,1.000,1.000,-90.00,180.00,-45.00,OPEN,0
656358.904,0,0,0,1.000,1.000,1.000,-90.00,180.00,-45.00,OPEN,0
656358.953,0,0,0,1.000,1.000,1.000,-90.00,180.00,-45.00,OPEN,0
656359.004,0,0,0,1.000,1.000,1.000,-90.00,180.00,-45.00,OPEN,0
656359.054,0,0,0,1.000,1.000,1.000,-90.00,180.00,-45.00,OPEN,0
656359.104,0,0,0,1.000,1.000,1.000,-90.00,180.00,-45.00,OPEN,0
656359.154,0,0,0,1.000,1.000,1.000,-90.00,180.00,-45.00,OPEN,0
656359.206,0,0,0,1.000,1.000,1.000,-90.00,180.00,-45.00,OPEN,0
656359.255,0,0,0,1.000,1.000,1.000,-90.00,180.00,-45.00,OPEN,0
656359.305,0,0,0,1.000,1.000,1.000,-90.00,180.00,-45.00,OPEN,0
656359.354,0,0,0,1.000,1.000,1.000,-90.00,180.00,-45.00,OPEN,0
656359.404,0,0,0,1.000,1.000,1.000,-90.00,180.00,-45.00,OPEN,0
656359.454,0,0,0,1.000,1.000,1.000,-90.00,180.00,-45.00,OPEN,0
656359.504,0,0,0,1.000,1.000,1.000,-90.00,180.00,-45.00,OPEN,0
656359.553,0,0,0,1.000,1.000,1.000,-90.00,180.00,-45.00,OPEN,0
656359.604,0,0,0,1.000,1.000,1.000,-90.00,180.00,-45.00,OPEN,0
656359.655,0,0,0,1.000,1.000,1.000,-90.00,180.00,-45.00,OPEN,0
656359.704,0,0,0,1.000,1.000,1.000,-90.00,180.00,-45.00,OPEN,0
656359.754,0,0,0,1.000,1.000,1.000,-90.00,180.00,-45.00,OPEN,0
656359.804,0,0,0,1.000,1.000,1.000,-90.00,180.00,-45.00,OPEN,0
656359.854,0,0,0,1.000,1.000,1.000,-90.00,180.00,-45.00,OPEN,0
656359.905,0,0,0,1.000,1.000,1.000,-90.00,180.00,-45.00,OPEN,0
656359.954,0,0,0,1.000,1.000,1.000,-90.00,180.00,-45.00,OPEN,0
656360.004,0,0,0,1.000,1.000,1.000,-90.00,180.00,-45.00,OPEN,0
656360.054,0,0,0,1.000,1.000,1.000,-90.00,180.00,-45.00,OPEN,0
656360.104,0,0,0,1.000,1.000,1.000,-90.00,180.00,-45.00,OPEN,0
656360.158,0,0,0,1.000,1.000,1.000,-90.00,180.00,-45.00,OPEN,0
656360.204,0,0,0,1.000,1.000,1.000,-90.00,180.00,-45.00,OPEN,0
656360.257,0,0,0,1.000,1.000,1.000,-90.00,180.00,-45.00,OPEN,0
656360.307,0,0,0,1.000,1.000,1.000,-90.00,180.00,-45.00,OPEN,0
656360.357,0,0,0,1.000,1.000,1.000,-90.00,180.00,-45.00,OPEN,0
656360.406,0,0,0,1.000,1.000,1.000,-90.00,180.00,-45.00,OPEN,0
656360.455,0,0,0,1.000,1.000,1.000,-90.00,180.00,-45.00,OPEN,0
656360.505,0,0,0,1.000,1.000,1.000,-90.00,180.00,-45.00,OPEN,0
656360.555,0,0,0,1.000,1.000,1.000,-90.00,180.00,-45.00,OPEN,0
656360.604,0,0,0,1.000,1.000,1.000,-90.00,180.00,-45.00,OPEN,0
656360.657,0,0,0,1.000,1.000,1.000,-90.00,180.00,-45.00,OPEN,0
656360.704,0,0,0,1.000,1.000,1.000,-90.00,180.00,-45.00,OPEN,0
656360.754,0,0,0,1.000,1.000,1.000,-90.00,180.00,-45.00,OPEN,0
656360.805,0,0,0,1.000,1.000,1.000,-90.00,180.00,-45.00,OPEN,0
656360.855,0,0,0,1.000,1.000,1.000,-90.00,180.00,-45.00,OPEN,0
656360.904,0,0,0,1.000,1.000,1.000,-90.00,180.00,-45.00,OPEN,0
656360.954,0,0,0,1.000,1.000,1.000,-90.00,180.00,-45.00,OPEN,0
