t,hand,elbow,shoulder,p_hand,p_elbow,p_shoulder,J2,J3,J6,grip_state,cmd_sent
557309.848,0,0,0,1.000,1.000,0.939,-90.00,180.00,0.00,OPEN,0
557309.859,0,0,0,1.000,1.000,0.939,-90.00,180.00,0.00,OPEN,0
557309.871,0,0,0,1.000,1.000,0.939,-90.00,180.00,0.00,OPEN,0
557309.883,0,0,0,1.000,1.000,0.939,-90.00,180.00,0.00,OPEN,0
557309.894,0,0,0,1.000,1.000,0.939,-90.00,180.00,0.00,OPEN,0
557309.904,0,0,0,1.000,1.000,0.955,-90.00,180.00,0.00,OPEN,0
557309.916,0,0,0,1.000,1.000,0.955,-90.00,180.00,0.00,OPEN,0
557309.927,0,0,0,1.000,1.000,0.955,-90.00,180.00,0.00,OPEN,0
557309.938,0,0,0,1.000,1.000,0.955,-90.00,180.00,0.00,OPEN,0
557309.949,0,0,0,1.000,1.000,0.977,-90.00,180.00,0.00,OPEN,0
557309.961,0,0,0,1.000,1.000,0.977,-90.00,180.00,0.00,OPEN,0
557309.973,0,0,0,1.000,1.000,0.977,-90.00,180.00,0.00,OPEN,0
557309.984,0,0,0,1.000,1.000,0.977,-90.00,180.00,0.00,OPEN,0
557309.995,0,0,0,1.000,1.000,0.977,-90.00,180.00,0.00,OPEN,0
557310.006,0,0,0,1.000,1.000,0.989,-90.00,180.00,0.00,OPEN,0
557310.017,0,0,0,1.000,1.000,0.989,-90.00,180.00,0.00,OPEN,0
557310.027,0,0,0,1.000,1.000,0.989,-90.00,180.00,0.00,OPEN,0
557310.038,0,0,0,1.000,1.000,0.989,-90.00,180.00,0.00,OPEN,0
557310.049,0,0,0,1.000,1.000,0.993,-90.00,180.00,0.00,OPEN,0
557310.060,0,0,0,1.000,1.000,0.993,-90.00,180.00,0.00,OPEN,0
557310.071,0,0,0,1.000,1.000,0.993,-90.00,180.00,0.00,OPEN,0
557310.082,0,0,0,1.000,1.000,0.993,-90.00,180.00,0.00,OPEN,0
557310.094,0,0,0,1.000,1.000,0.993,-90.00,180.00,0.00,OPEN,0
557310.105,0,0,0,1.000,1.000,0.996,-90.00,180.00,0.00,OPEN,0
557310.116,0,0,0,1.000,1.000,0.996,-90.00,180.00,0.00,OPEN,0
557310.127,0,0,0,1.000,1.000,0.996,-90.00,180.00,0.00,OPEN,0
557310.138,0,0,0,1.000,1.000,0.996,-90.00,180.00,0.00,OPEN,0
557310.149,0,0,0,1.000,1.000,0.997,-90.00,180.00,0.00,OPEN,0
557310.161,0,0,0,1.000,1.000,0.997,-90.00,180.00,0.00,OPEN,0
557310.171,0,0,0,1.000,1.000,0.997,-90.00,180.00,0.00,OPEN,0
557310.182,0,0,0,1.000,1.000,0.997,-90.00,180.00,0.00,OPEN,0
557310.194,0,0,0,1.000,1.000,0.997,-90.00,180.00,0.00,OPEN,0
557310.205,0,0,0,1.000,1.000,0.995,-90.00,180.00,0.00,OPEN,0
557310.216,0,0,0,1.000,1.000,0.995,-90.00,180.00,0.00,OPEN,0
557310.227,0,0,0,1.000,1.000,0.995,-90.00,180.00,0.00,OPEN,0
557310.238,0,0,0,1.000,1.000,0.995,-90.00,180.00,0.00,OPEN,0
557310.249,0,0,0,1.000,1.000,0.993,-90.00,180.00,0.00,OPEN,0
557310.261,0,0,0,1.000,1.000,0.993,-90.00,180.00,0.00,OPEN,0
557310.273,0,0,0,1.000,1.000,0.993,-90.00,180.00,0.00,OPEN,0
557310.291,0,0,0,1.000,1.000,0.993,-90.00,180.00,0.00,OPEN,0
557310.310,0,0,0,1.000,1.000,0.990,-90.00,180.00,0.00,OPEN,0
557310.356,0,0,0,1.000,1.000,0.987,-90.00,180.00,0.00,OPEN,0
557310.371,0,0,0,1.000,1.000,0.987,-90.00,180.00,0.00,OPEN,0
557310.384,0,0,0,1.000,1.000,0.987,-90.00,180.00,0.00,OPEN,0
557310.394,0,0,0,1.000,1.000,0.987,-90.00,180.00,0.00,OPEN,0
557310.405,0,0,0,1.000,1.000,0.993,-90.00,180.00,0.00,OPEN,0
557310.416,0,0,0,1.000,1.000,0.993,-90.00,180.00,0.00,OPEN,0
557310.427,0,0,0,1.000,1.000,0.993,-90.00,180.00,0.00,OPEN,0
557310.437,0,0,0,1.000,1.000,0.993,-90.00,180.00,0.00,OPEN,0
557310.448,0,0,0,1.000,1.000,0.996,-90.00,180.00,0.00,OPEN,0
557310.459,0,0,0,1.000,1.000,0.996,-90.00,180.00,0.00,OPEN,0
557310.470,0,0,0,1.000,1.000,0.996,-90.00,180.00,0.00,OPEN,0
557310.481,0,0,0,1.000,1.000,0.996,-90.00,180.00,0.00,OPEN,0
557310.491,0,0,0,1.000,1.000,0.996,-90.00,180.00,0.00,OPEN,0
557310.502,0,0,0,1.000,1.000,0.995,-90.00,180.00,0.00,OPEN,0
557310.513,0,0,0,1.000,1.000,0.995,-90.00,180.00,0.00,OPEN,0
557310.524,0,0,0,1.000,1.000,0.995,-90.00,180.00,0.00,OPEN,0
557310.535,0,0,0,1.000,1.000,0.995,-90.00,180.00,0.00,OPEN,0
557310.546,0,0,0,1.000,1.000,0.995,-90.00,180.00,0.00,OPEN,0
557310.556,0,0,0,1.000,1.000,0.994,-90.00,180.00,0.00,OPEN,0
557310.567,0,0,0,1.000,1.000,0.994,-90.00,180.00,0.00,OPEN,0
557310.578,0,0,0,1.000,1.000,0.994,-90.00,180.00,0.00,OPEN,0
557310.589,0,0,0,1.000,1.000,0.994,-90.00,180.00,0.00,OPEN,0
557310.599,0,0,0,1.000,1.000,0.989,-90.00,180.00,0.00,OPEN,0
557310.610,0,0,0,1.000,1.000,0.989,-90.00,180.00,0.00,OPEN,0
557310.621,0,0,0,1.000,1.000,0.989,-90.00,180.00,0.00,OPEN,0
557310.632,0,0,0,1.000,1.000,0.989,-90.00,180.00,0.00,OPEN,0
557310.643,0,0,0,1.000,1.000,0.989,-90.00,180.00,0.00,OPEN,0
557310.654,0,0,0,1.000,1.000,0.985,-90.00,180.00,0.00,OPEN,0
557310.665,0,0,0,1.000,1.000,0.985,-90.00,180.00,0.00,OPEN,0
557310.676,0,0,0,1.000,1.000,0.985,-90.00,180.00,0.00,OPEN,0
557310.687,0,0,0,1.000,1.000,0.985,-90.00,180.00,0.00,OPEN,0
557310.698,0,0,0,1.000,1.000,0.974,-90.00,180.00,0.00,OPEN,0
557310.710,0,0,0,1.000,1.000,0.974,-90.00,180.00,0.00,OPEN,0
557310.721,0,0,0,1.000,1.000,0.974,-90.00,180.00,0.00,OPEN,0
557310.731,0,0,0,1.000,1.000,0.974,-90.00,180.00,0.00,OPEN,0
557310.742,0,0,0,1.000,1.000,0.974,-90.00,180.00,0.00,OPEN,0
557310.753,0,0,0,1.000,1.000,0.953,-90.00,180.00,0.00,OPEN,0
557310.764,0,0,0,1.000,1.000,0.953,-90.00,180.00,0.00,OPEN,0
557310.775,0,0,0,1.000,1.000,0.953,-90.00,180.00,0.00,OPEN,0
557310.785,0,0,0,1.000,1.000,0.953,-90.00,180.00,0.00,OPEN,0
557310.796,0,0,0,1.000,1.000,0.953,-90.00,180.00,0.00,OPEN,0
557310.807,0,0,0,1.000,1.000,0.841,-90.00,180.00,0.00,OPEN,0
557310.817,0,0,0,1.000,1.000,0.841,-90.00,180.00,0.00,OPEN,0
557310.828,0,0,0,1.000,1.000,0.841,-90.00,180.00,0.00,OPEN,0
557310.839,0,0,0,1.000,1.000,0.841,-90.00,180.00,0.00,OPEN,0
557310.850,0,0,0,1.000,1.000,0.714,-90.00,180.00,0.00,OPEN,0
557310.862,0,0,0,1.000,1.000,0.714,-90.00,180.00,0.00,OPEN,0
557310.872,0,0,0,1.000,1.000,0.714,-90.00,180.00,0.00,OPEN,0
557310.883,0,0,0,1.000,1.000,0.714,-90.00,180.00,0.00,OPEN,0
557310.894,0,0,0,1.000,1.000,0.714,-90.00,180.00,0.00,OPEN,0
557310.905,0,0,0,1.000,1.000,0.795,-90.00,180.00,0.00,OPEN,0
557310.916,0,0,0,1.000,1.000,0.795,-90.00,180.00,0.00,OPEN,0
557310.926,0,0,0,1.000,1.000,0.795,-90.00,180.00,0.00,OPEN,0
557310.937,0,0,0,1.000,1.000,0.795,-90.00,180.00,0.00,OPEN,0
557310.948,0,0,0,1.000,1.000,0.870,-90.00,180.00,0.00,OPEN,0
557310.958,0,0,0,1.000,1.000,0.870,-90.00,180.00,0.00,OPEN,0
557310.969,0,0,0,1.000,1.000,0.870,-90.00,180.00,0.00,OPEN,0
557310.980,0,0,0,1.000,1.000,0.870,-90.00,180.00,0.00,OPEN,0
557310.990,0,0,0,1.000,1.000,0.870,-90.00,180.00,0.00,OPEN,0
557311.002,0,0,0,0.956,1.000,0.959,-90.00,180.00,0.00,OPEN,0
557311.012,0,0,0,0.956,1.000,0.959,-90.00,180.00,0.00,OPEN,0
557311.023,0,0,0,0.956,1.000,0.959,-90.00,180.00,0.00,OPEN,0
557311.034,0,0,0,0.956,1.000,0.959,-90.00,180.00,0.00,OPEN,0
557311.045,0,0,0,0.956,1.000,0.959,-90.00,180.00,0.00,OPEN,0
557311.055,0,0,0,1.000,1.000,0.994,-90.00,180.00,0.00,OPEN,0
557311.066,0,0,0,1.000,1.000,0.994,-90.00,180.00,0.00,OPEN,0
557311.077,0,0,0,1.000,1.000,0.994,-90.00,180.00,0.00,OPEN,0
557311.088,0,0,0,1.000,1.000,0.994,-90.00,180.00,0.00,OPEN,0
557311.099,0,0,0,0.891,1.000,0.998,-90.00,180.00,0.00,OPEN,0
557311.110,0,0,0,0.891,1.000,0.998,-90.00,180.00,0.00,OPEN,0
557311.121,0,0,0,0.891,1.000,0.998,-90.00,180.00,0.00,OPEN,0
557311.132,0,0,0,0.891,1.000,0.998,-90.00,180.00,0.00,OPEN,0
557311.144,0,0,0,0.891,1.000,0.998,-90.00,180.00,0.00,OPEN,0
557311.156,0,0,0,0.581,1.000,0.999,-90.00,180.00,0.00,OPEN,0
557311.167,0,0,0,0.581,1.000,0.999,-90.00,180.00,0.00,OPEN,0
557311.178,0,0,0,0.581,1.000,0.999,-90.00,180.00,0.00,OPEN,0
557311.188,0,0,0,0.581,1.000,0.999,-90.00,180.00,0.00,OPEN,0
557311.199,0,0,0,0.575,1.000,0.999,-90.00,180.00,0.00,OPEN,0
557311.210,0,0,0,0.575,1.000,0.999,-90.00,180.00,0.00,OPEN,0
557311.221,0,0,0,0.575,1.000,0.999,-90.00,180.00,0.00,OPEN,0
557311.231,0,0,0,0.575,1.000,0.999,-90.00,180.00,0.00,OPEN,0
557311.243,0,0,0,0.575,1.000,0.999,-90.00,180.00,0.00,OPEN,0
557311.254,0,0,0,0.560,1.000,0.999,-90.00,180.00,0.00,OPEN,0
557311.265,0,0,0,0.560,1.000,0.999,-90.00,180.00,0.00,OPEN,0
557311.276,0,0,0,0.560,1.000,0.999,-90.00,180.00,0.00,OPEN,0
557311.288,0,0,0,0.560,1.000,0.999,-90.00,180.00,0.00,OPEN,0
557311.300,0,0,0,0.888,1.000,0.999,-90.00,180.00,0.00,OPEN,0
557311.310,0,0,0,0.888,1.000,0.999,-90.00,180.00,0.00,OPEN,0
557311.321,0,0,0,0.888,1.000,0.999,-90.00,180.00,0.00,OPEN,0
557311.332,0,0,0,0.888,1.000,0.999,-90.00,180.00,0.00,OPEN,0
557311.343,0,0,0,0.888,1.000,0.999,-90.00,180.00,0.00,OPEN,0
557311.354,0,0,0,0.990,1.000,0.999,-90.00,180.00,0.00,OPEN,0
557311.365,0,0,0,0.990,1.000,0.999,-90.00,180.00,0.00,OPEN,0
557311.376,0,0,0,0.990,1.000,0.999,-90.00,180.00,0.00,OPEN,0
557311.388,0,0,0,0.990,1.000,0.999,-90.00,180.00,0.00,OPEN,0
557311.399,0,0,0,0.999,1.000,0.999,-90.00,180.00,0.00,OPEN,0
557311.409,0,0,0,0.999,1.000,0.999,-90.00,180.00,0.00,OPEN,0
557311.421,0,0,0,0.999,1.000,0.999,-90.00,180.00,0.00,OPEN,0
557311.431,0,0,0,0.999,1.000,0.999,-90.00,180.00,0.00,OPEN,0
557311.442,0,0,0,0.999,1.000,0.999,-90.00,180.00,0.00,OPEN,0
557311.454,0,0,0,1.000,1.000,0.999,-90.00,180.00,0.00,OPEN,0
557311.464,0,0,0,1.000,1.000,0.999,-90.00,180.00,0.00,OPEN,0
557311.475,0,0,0,1.000,1.000,0.999,-90.00,180.00,0.00,OPEN,0
557311.486,0,0,0,1.000,1.000,0.999,-90.00,180.00,0.00,OPEN,0
557311.497,0,0,0,1.000,1.000,0.999,-90.00,180.00,0.00,OPEN,0
557311.507,0,0,0,1.000,1.000,0.999,-90.00,180.00,0.00,OPEN,0
557311.518,0,0,0,1.000,1.000,0.999,-90.00,180.00,0.00,OPEN,0
557311.529,0,0,0,1.000,1.000,0.999,-90.00,180.00,0.00,OPEN,0
557311.540,0,0,0,1.000,1.000,0.999,-90.00,180.00,0.00,OPEN,0
557311.550,0,0,0,1.000,1.000,0.999,-90.00,180.00,0.00,OPEN,0
557311.561,0,0,0,1.000,1.000,0.999,-90.00,180.00,0.00,OPEN,0
557311.572,0,0,0,1.000,1.000,0.999,-90.00,180.00,0.00,OPEN,0
557311.582,0,0,0,1.000,1.000,0.999,-90.00,180.00,0.00,OPEN,0
557311.593,0,0,0,1.000,1.000,0.999,-90.00,180.00,0.00,OPEN,0
557311.604,0,0,0,1.000,1.000,0.999,-90.00,180.00,0.00,OPEN,0
557311.615,0,0,0,1.000,1.000,0.999,-90.00,180.00,0.00,OPEN,0
557311.626,0,0,0,1.000,1.000,0.999,-90.00,180.00,0.00,OPEN,0
557311.638,0,0,0,1.000,1.000,0.999,-90.00,180.00,0.00,OPEN,0
557311.648,0,0,0,1.000,1.000,0.999,-90.00,180.00,0.00,OPEN,0
557311.660,0,0,0,1.000,1.000,0.999,-90.00,180.00,0.00,OPEN,0
557311.672,0,0,0,1.000,1.000,0.999,-90.00,180.00,0.00,OPEN,0
557311.683,0,0,0,1.000,1.000,0.999,-90.00,180.00,0.00,OPEN,0
557311.693,0,0,0,1.000,1.000,0.999,-90.00,180.00,0.00,OPEN,0
557311.705,1,0,0,1.000,1.000,0.999,-90.00,180.00,0.00,OPEN,0
557311.715,1,0,0,1.000,1.000,0.999,-90.00,180.00,0.00,OPEN,0
557311.727,1,0,0,1.000,1.000,0.999,-90.00,180.00,0.00,OPEN,0
557311.738,1,0,0,1.000,1.000,0.999,-90.00,180.00,0.00,OPEN,0
557311.749,1,0,0,1.000,1.000,0.999,-90.00,180.00,0.00,OPEN,0
557311.759,1,0,0,1.000,1.000,0.999,-90.00,180.00,0.00,OPEN,0
557311.770,1,0,0,1.000,1.000,0.999,-90.00,180.00,0.00,OPEN,0
557311.781,1,0,0,1.000,1.000,0.999,-90.00,180.00,0.00,OPEN,0
557311.792,1,0,0,1.000,1.000,0.999,-90.00,180.00,0.00,OPEN,0
557311.803,1,0,0,1.000,1.000,0.999,-90.00,180.00,0.00,OPEN,0
557311.814,1,0,0,1.000,1.000,0.999,-90.00,180.00,0.00,OPEN,0
557311.825,1,0,0,1.000,1.000,0.999,-90.00,180.00,0.00,OPEN,0
557311.838,1,0,0,1.000,1.000,0.999,-90.00,180.00,0.00,OPEN,0
557311.849,1,0,0,1.000,1.000,0.999,-90.00,180.00,0.00,OPEN,0
557311.860,1,0,0,1.000,1.000,0.999,-90.00,180.00,0.00,OPEN,0
557311.871,1,0,0,1.000,1.000,0.999,-90.00,180.00,0.00,OPEN,0
557311.882,1,0,0,1.000,1.000,0.999,-90.00,180.00,0.00,OPEN,0
557311.894,1,0,0,1.000,1.000,0.999,-90.00,180.00,0.00,OPEN,0
557311.905,1,0,0,1.000,1.000,0.998,-90.00,180.00,0.00,OPEN,0
557311.915,1,0,0,1.000,1.000,0.998,-90.00,180.00,0.00,OPEN,0
557311.926,1,0,0,1.000,1.000,0.998,-90.00,180.00,0.00,OPEN,0
557311.937,1,0,0,1.000,1.000,0.998,-90.00,180.00,0.00,OPEN,0
557311.948,1,0,0,1.000,1.000,0.998,-90.00,180.00,0.00,OPEN,0
557311.958,1,0,0,1.000,1.000,0.998,-90.00,180.00,0.00,OPEN,0
557311.970,1,0,0,1.000,1.000,0.998,-90.00,180.00,0.00,OPEN,0
557311.980,1,0,0,1.000,1.000,0.998,-90.00,180.00,0.00,OPEN,0
557311.991,1,0,0,1.000,1.000,0.998,-90.00,180.00,0.00,OPEN,0
557312.002,1,0,0,1.000,1.000,0.997,-90.00,180.00,0.00,OPEN,0
557312.012,1,0,0,1.000,1.000,0.997,-90.00,180.00,0.00,OPEN,0
557312.023,1,0,0,1.000,1.000,0.997,-90.00,180.00,0.00,OPEN,0
557312.033,1,0,0,1.000,1.000,0.997,-90.00,180.00,0.00,OPEN,0
557312.044,1,0,0,1.000,1.000,0.997,-90.00,180.00,0.00,OPEN,0
557312.054,1,0,0,1.000,1.000,0.995,-90.00,180.00,0.00,OPEN,0
557312.065,1,0,0,1.000,1.000,0.995,-90.00,180.00,0.00,OPEN,0
557312.077,1,0,0,1.000,1.000,0.995,-90.00,180.00,0.00,OPEN,0
557312.088,1,0,0,1.000,1.000,0.995,-90.00,180.00,0.00,OPEN,0
557312.098,1,0,0,1.000,1.000,0.990,-90.00,180.00,0.00,OPEN,0
557312.110,1,0,0,1.000,1.000,0.990,-90.00,180.00,0.00,OPEN,0
557312.121,1,0,0,1.000,1.000,0.990,-90.00,180.00,0.00,OPEN,0
557312.132,1,0,0,1.000,1.000,0.990,-90.00,180.00,0.00,OPEN,0
557312.144,1,0,0,1.000,1.000,0.990,-90.00,180.00,0.00,OPEN,0
557312.155,1,0,0,1.000,1.000,0.993,-90.00,180.00,0.00,OPEN,0
557312.165,1,0,0,1.000,1.000,0.993,-90.00,180.00,0.00,OPEN,0
557312.180,1,0,0,1.000,1.000,0.993,-90.00,180.00,0.00,OPEN,0
557312.194,1,0,0,1.000,1.000,0.993,-90.00,180.00,0.00,OPEN,0
557312.205,1,0,0,1.000,1.000,0.994,-90.00,180.00,0.00,OPEN,0
557312.215,1,0,0,1.000,1.000,0.994,-90.00,180.00,0.00,OPEN,0
557312.226,1,0,0,1.000,1.000,0.994,-90.00,180.00,0.00,OPEN,0
557312.237,1,0,0,1.000,1.000,0.994,-90.00,180.00,0.00,OPEN,0
557312.248,1,0,0,1.000,1.000,0.994,-90.00,180.00,0.00,OPEN,0
557312.259,1,0,0,1.000,1.000,0.994,-90.00,180.00,0.00,OPEN,0
557312.271,1,0,0,1.000,1.000,0.994,-90.00,180.00,0.00,OPEN,0
557312.282,1,0,0,1.000,1.000,0.994,-90.00,180.00,0.00,OPEN,0
557312.292,1,0,0,1.000,1.000,0.994,-90.00,180.00,0.00,OPEN,0
557312.304,1,0,0,1.000,1.000,0.996,-90.00,180.00,0.00,OPEN,0
557312.314,1,0,0,1.000,1.000,0.996,-90.00,180.00,0.00,OPEN,0
557312.326,1,0,0,1.000,1.000,0.996,-90.00,180.00,0.00,OPEN,0
557312.337,1,0,0,1.000,1.000,0.996,-90.00,180.00,0.00,OPEN,0
557312.348,1,0,0,1.000,1.000,0.992,-90.00,180.00,0.00,OPEN,0
557312.359,1,0,0,1.000,1.000,0.992,-90.00,180.00,0.00,OPEN,0
557312.371,1,0,0,1.000,1.000,0.992,-90.00,180.00,0.00,OPEN,0
557312.382,1,0,0,1.000,1.000,0.992,-90.00,180.00,0.00,OPEN,0
557312.392,1,0,0,1.000,1.000,0.992,-90.00,180.00,0.00,OPEN,0
557312.403,1,0,0,1.000,1.000,0.988,-90.00,180.00,0.00,OPEN,0
557312.414,1,0,0,1.000,1.000,0.988,-90.00,180.00,0.00,OPEN,0
557312.425,1,0,0,1.000,1.000,0.988,-90.00,180.00,0.00,OPEN,0
557312.439,1,0,0,1.000,1.000,0.988,-90.00,180.00,0.00,OPEN,0
557312.449,1,0,0,1.000,1.000,0.983,-90.00,180.00,0.00,OPEN,0
557312.459,1,0,0,1.000,1.000,0.983,-90.00,180.00,0.00,OPEN,0
557312.471,1,0,0,1.000,1.000,0.983,-90.00,180.00,0.00,OPEN,0
557312.481,1,0,0,1.000,1.000,0.983,-90.00,180.00,0.00,OPEN,0
557312.491,1,0,0,1.000,1.000,0.983,-90.00,180.00,0.00,OPEN,0
557312.503,1,0,0,1.000,1.000,0.996,-90.00,180.00,0.00,OPEN,0
557312.514,1,0,0,1.000,1.000,0.996,-90.00,180.00,0.00,OPEN,0
557312.525,1,0,0,1.000,1.000,0.996,-90.00,180.00,0.00,OPEN,0
557312.536,1,0,0,1.000,1.000,0.996,-90.00,180.00,0.00,OPEN,0
557312.547,1,0,0,1.000,1.000,0.996,-90.00,180.00,0.00,OPEN,0
557312.558,1,0,0,1.000,1.000,0.996,-90.00,180.00,0.00,OPEN,0
557312.571,1,0,0,1.000,1.000,0.996,-90.00,180.00,0.00,OPEN,0
557312.581,1,0,0,1.000,1.000,0.996,-90.00,180.00,0.00,OPEN,0
557312.592,1,0,0,1.000,1.000,0.996,-90.00,180.00,0.00,OPEN,0
557312.604,1,0,0,1.000,1.000,0.993,-90.00,180.00,0.00,OPEN,0
557312.615,1,0,0,1.000,1.000,0.993,-90.00,180.00,0.00,OPEN,0
557312.625,1,0,0,1.000,1.000,0.993,-90.00,180.00,0.00,OPEN,0
557312.638,1,0,0,1.000,1.000,0.993,-90.00,180.00,0.00,OPEN,0
557312.648,1,0,0,1.000,1.000,0.994,-90.00,180.00,0.00,OPEN,0
557312.660,1,0,0,1.000,1.000,0.994,-90.00,180.00,0.00,OPEN,0
557312.671,1,0,0,1.000,1.000,0.994,-90.00,180.00,0.00,OPEN,0
557312.682,1,0,0,1.000,1.000,0.994,-90.00,180.00,0.00,OPEN,0
557312.694,1,0,0,1.000,1.000,0.994,-90.00,180.00,0.00,OPEN,0
557312.705,1,0,0,1.000,1.000,0.994,-90.00,180.00,0.00,OPEN,0
557312.716,1,0,0,1.000,1.000,0.994,-90.00,180.00,0.00,OPEN,0
557312.728,1,0,0,1.000,1.000,0.994,-90.00,180.00,0.00,OPEN,0
557312.740,1,0,0,1.000,1.000,0.994,-90.00,180.00,0.00,OPEN,0
557312.751,1,0,0,1.000,1.000,0.994,-90.00,180.00,0.00,OPEN,0
557312.762,1,0,0,1.000,1.000,0.994,-90.00,180.00,0.00,OPEN,0
557312.773,1,0,0,1.000,1.000,0.994,-90.00,180.00,0.00,OPEN,0
557312.784,1,0,0,1.000,1.000,0.994,-90.00,180.00,0.00,OPEN,0
557312.795,1,0,0,1.000,1.000,0.994,-90.00,180.00,0.00,OPEN,0
557312.805,1,0,0,1.000,1.000,0.975,-90.00,180.00,0.00,OPEN,0
557312.816,1,0,0,1.000,1.000,0.975,-90.00,180.00,0.00,OPEN,0
557312.827,1,0,0,1.000,1.000,0.975,-90.00,180.00,0.00,OPEN,0
557312.838,1,0,0,1.000,1.000,0.975,-90.00,180.00,0.00,OPEN,0
557312.849,1,0,0,1.000,1.000,0.835,-90.00,180.00,0.00,OPEN,0
557312.860,1,0,0,1.000,1.000,0.835,-90.00,180.00,0.00,OPEN,0
557312.871,1,0,0,1.000,1.000,0.835,-90.00,180.00,0.00,OPEN,0
557312.881,1,0,0,1.000,1.000,0.835,-90.00,180.00,0.00,OPEN,0
557312.892,1,0,0,1.000,1.000,0.835,-90.00,180.00,0.00,OPEN,0
557312.903,1,0,0,1.000,1.000,0.807,-90.00,180.00,0.00,OPEN,0
557312.913,1,0,0,1.000,1.000,0.807,-90.00,180.00,0.00,OPEN,0
557312.924,1,0,0,1.000,1.000,0.807,-90.00,180.00,0.00,OPEN,0
557312.934,1,0,0,1.000,1.000,0.807,-90.00,180.00,0.00,OPEN,0
557312.945,1,0,0,1.000,1.000,0.807,-90.00,180.00,0.00,OPEN,0
557312.955,1,0,0,1.000,1.000,0.937,-90.00,180.00,0.00,OPEN,0
557312.966,1,0,0,1.000,1.000,0.937,-90.00,180.00,0.00,OPEN,0
557312.977,1,0,0,1.000,1.000,0.937,-90.00,180.00,0.00,OPEN,0
557312.988,1,0,0,1.000,1.000,0.937,-90.00,180.00,0.00,OPEN,0
557312.999,1,0,0,1.000,1.000,0.977,-90.00,180.00,0.00,OPEN,0
557313.010,1,0,0,1.000,1.000,0.977,-90.00,180.00,0.00,OPEN,0
557313.021,1,0,0,1.000,1.000,0.977,-90.00,180.00,0.00,OPEN,0
557313.031,1,0,0,1.000,1.000,0.977,-90.00,180.00,0.00,OPEN,0
557313.042,1,0,0,1.000,1.000,0.977,-90.00,180.00,0.00,OPEN,0
557313.053,1,0,0,1.000,1.000,0.987,-90.00,180.00,0.00,OPEN,0
557313.064,1,0,0,1.000,1.000,0.987,-90.00,180.00,0.00,OPEN,0
557313.074,1,0,0,1.000,1.000,0.987,-90.00,180.00,0.00,OPEN,0
557313.085,1,0,0,1.000,1.000,0.987,-90.00,180.00,0.00,OPEN,0
557313.096,1,0,0,1.000,1.000,0.987,-90.00,180.00,0.00,OPEN,0
557313.106,1,0,0,1.000,1.000,0.992,-90.00,180.00,0.00,OPEN,0
557313.118,1,0,0,1.000,1.000,0.992,-90.00,180.00,0.00,OPEN,0
557313.129,1,0,0,1.000,1.000,0.992,-90.00,180.00,0.00,OPEN,0
557313.140,1,0,0,1.000,1.000,0.992,-90.00,180.00,0.00,OPEN,0
557313.151,1,0,0,1.000,1.000,0.995,-90.00,180.00,0.00,OPEN,0
557313.162,1,0,0,1.000,1.000,0.995,-90.00,180.00,0.00,OPEN,0
557313.172,1,0,0,1.000,1.000,0.995,-90.00,180.00,0.00,OPEN,0
557313.183,1,0,0,1.000,1.000,0.995,-90.00,180.00,0.00,OPEN,0
557313.194,1,0,0,1.000,1.000,0.995,-90.00,180.00,0.00,OPEN,0
557313.205,1,0,0,1.000,1.000,0.996,-90.00,180.00,0.00,OPEN,0
557313.216,1,0,0,1.000,1.000,0.996,-90.00,180.00,0.00,OPEN,0
557313.227,1,0,0,1.000,1.000,0.996,-90.00,180.00,0.00,OPEN,0
557313.238,1,0,0,1.000,1.000,0.996,-90.00,180.00,0.00,OPEN,0
557313.249,1,0,0,1.000,1.000,0.998,-90.00,180.00,0.00,OPEN,0
557313.260,1,0,0,1.000,1.000,0.998,-90.00,180.00,0.00,OPEN,0
557313.271,1,0,0,1.000,1.000,0.998,-90.00,180.00,0.00,OPEN,0
557313.282,1,0,0,1.000,1.000,0.998,-90.00,180.00,0.00,OPEN,0
557313.293,1,0,0,1.000,1.000,0.998,-90.00,180.00,0.00,OPEN,0
557313.304,1,0,0,1.000,1.000,0.997,-90.00,180.00,0.00,OPEN,0
557313.315,1,0,0,1.000,1.000,0.997,-90.00,180.00,0.00,OPEN,0
557313.326,1,0,0,1.000,1.000,0.997,-90.00,180.00,0.00,OPEN,0
557313.337,1,0,0,1.000,1.000,0.997,-90.00,180.00,0.00,OPEN,0
557313.348,1,0,0,1.000,1.000,0.996,-90.00,180.00,0.00,OPEN,0
557313.360,1,0,0,1.000,1.000,0.996,-90.00,180.00,0.00,OPEN,0
557313.373,1,0,0,1.000,1.000,0.996,-90.00,180.00,0.00,OPEN,0
557313.383,1,0,0,1.000,1.000,0.996,-90.00,180.00,0.00,OPEN,0
557313.394,1,0,0,1.000,1.000,0.996,-90.00,180.00,0.00,OPEN,0
557313.405,1,0,0,1.000,1.000,0.993,-90.00,180.00,0.00,OPEN,0
557313.416,1,0,0,1.000,1.000,0.993,-90.00,180.00,0.00,OPEN,0
557313.427,1,0,0,1.000,1.000,0.993,-90.00,180.00,0.00,OPEN,0
557313.438,1,0,0,1.000,1.000,0.993,-90.00,180.00,0.00,OPEN,0
557313.448,1,0,0,1.000,1.000,0.993,-90.00,180.00,0.00,OPEN,0
557313.459,1,0,0,1.000,1.000,0.993,-90.00,180.00,0.00,OPEN,0
557313.470,1,0,0,1.000,1.000,0.993,-90.00,180.00,0.00,OPEN,0
557313.481,1,0,0,1.000,1.000,0.993,-90.00,180.00,0.00,OPEN,0
557313.493,1,0,0,1.000,1.000,0.993,-90.00,180.00,0.00,OPEN,0
557313.505,1,0,0,1.000,1.000,0.990,-90.00,180.00,0.00,OPEN,0
557313.516,1,0,0,1.000,1.000,0.990,-90.00,180.00,0.00,OPEN,0
557313.528,1,0,0,1.000,1.000,0.990,-90.00,180.00,0.00,OPEN,0
557313.539,1,0,0,1.000,1.000,0.990,-90.00,180.00,0.00,OPEN,0
557313.550,1,0,0,1.000,1.000,0.985,-90.00,180.00,0.00,OPEN,0
557313.561,1,0,0,1.000,1.000,0.985,-90.00,180.00,0.00,OPEN,0
557313.572,1,0,0,1.000,1.000,0.985,-90.00,180.00,0.00,OPEN,0
557313.583,1,0,0,1.000,1.000,0.985,-90.00,180.00,0.00,OPEN,0
557313.594,1,0,0,1.000,1.000,0.985,-90.00,180.00,0.00,OPEN,0
557313.605,1,0,0,1.000,1.000,0.978,-90.00,180.00,0.00,OPEN,0
557313.616,1,0,0,1.000,1.000,0.978,-90.00,180.00,0.00,OPEN,0
557313.627,1,0,0,1.000,1.000,0.978,-90.00,180.00,0.00,OPEN,0
557313.638,1,0,0,1.000,1.000,0.978,-90.00,180.00,0.00,OPEN,0
557313.649,1,0,0,1.000,1.000,0.974,-90.00,180.00,0.00,OPEN,0
557313.660,1,0,0,1.000,1.000,0.974,-90.00,180.00,0.00,OPEN,0
557313.671,1,0,0,1.000,1.000,0.974,-90.00,180.00,0.00,OPEN,0
557313.682,1,0,0,1.000,1.000,0.974,-90.00,180.00,0.00,OPEN,0
557313.693,1,0,0,1.000,1.000,0.974,-90.00,180.00,0.00,OPEN,0
557313.704,1,0,0,1.000,1.000,0.978,-90.00,180.00,0.00,OPEN,0
557313.714,1,0,0,1.000,1.000,0.978,-90.00,180.00,0.00,OPEN,0
557313.725,1,0,0,1.000,1.000,0.978,-90.00,180.00,0.00,OPEN,0
557313.737,1,0,0,1.000,1.000,0.978,-90.00,180.00,0.00,OPEN,0
557313.748,1,0,0,1.000,1.000,0.978,-90.00,180.00,0.00,OPEN,0
557313.758,1,0,0,1.000,1.000,0.993,-90.00,180.00,0.00,OPEN,0
557313.770,1,0,0,1.000,1.000,0.993,-90.00,180.00,0.00,OPEN,0
557313.780,1,0,0,1.000,1.000,0.993,-90.00,180.00,0.00,OPEN,0
557313.792,1,0,0,1.000,1.000,0.993,-90.00,180.00,0.00,OPEN,0
557313.803,1,0,0,1.000,1.000,0.989,-90.00,180.00,0.00,OPEN,0
557313.814,1,0,0,1.000,1.000,0.989,-90.00,180.00,0.00,OPEN,0
557313.825,1,0,0,1.000,1.000,0.989,-90.00,180.00,0.00,OPEN,0
557313.836,1,0,0,1.000,1.000,0.989,-90.00,180.00,0.00,OPEN,0
557313.847,1,0,0,1.000,1.000,0.989,-90.00,180.00,0.00,OPEN,0
557313.857,1,0,0,1.000,1.000,0.990,-90.00,180.00,0.00,OPEN,0
557313.871,1,0,0,1.000,1.000,0.990,-90.00,180.00,0.00,OPEN,0
557313.882,1,0,0,1.000,1.000,0.990,-90.00,180.00,0.00,OPEN,0
557313.893,1,0,0,1.000,1.000,0.990,-90.00,180.00,0.00,OPEN,0
557313.904,1,0,0,1.000,1.000,0.988,-90.00,180.00,0.00,OPEN,0
557313.914,1,0,0,1.000,1.000,0.988,-90.00,180.00,0.00,OPEN,0
557313.925,1,0,0,1.000,1.000,0.988,-90.00,180.00,0.00,OPEN,0
557313.936,1,0,0,1.000,1.000,0.988,-90.00,180.00,0.00,OPEN,0
557313.947,1,0,0,1.000,1.000,0.988,-90.00,180.00,0.00,OPEN,0
557313.958,1,0,0,1.000,1.000,0.985,-90.00,180.00,0.00,OPEN,0
557313.970,1,0,0,1.000,1.000,0.985,-90.00,180.00,0.00,OPEN,0
557313.981,1,0,0,1.000,1.000,0.985,-90.00,180.00,0.00,OPEN,0
557313.993,1,0,0,1.000,1.000,0.985,-90.00,180.00,0.00,OPEN,0
557314.004,1,0,0,1.000,1.000,0.922,-90.00,180.00,0.00,OPEN,0
557314.015,1,0,0,1.000,1.000,0.922,-90.00,180.00,0.00,OPEN,0
557314.025,1,0,0,1.000,1.000,0.922,-90.00,180.00,0.00,OPEN,0
557314.037,1,0,0,1.000,1.000,0.922,-90.00,180.00,0.00,OPEN,0
557314.047,1,0,0,1.000,1.000,0.922,-90.00,180.00,0.00,OPEN,0
557314.059,1,0,0,1.000,1.000,0.858,-90.00,180.00,0.00,OPEN,0
557314.070,1,0,0,1.000,1.000,0.858,-90.00,180.00,0.00,OPEN,0
557314.081,1,0,0,1.000,1.000,0.858,-90.00,180.00,0.00,OPEN,0
557314.092,1,0,0,1.000,1.000,0.858,-90.00,180.00,0.00,OPEN,0
557314.104,1,0,0,1.000,1.000,0.911,-90.00,180.00,0.00,OPEN,0
557314.114,1,0,0,1.000,1.000,0.911,-90.00,180.00,0.00,OPEN,0
557314.125,1,0,0,1.000,1.000,0.911,-90.00,180.00,0.00,OPEN,0
557314.136,1,0,0,1.000,1.000,0.911,-90.00,180.00,0.00,OPEN,0
557314.147,1,0,0,1.000,1.000,0.911,-90.00,180.00,0.00,OPEN,0
557314.160,1,0,0,1.000,1.000,0.914,-90.00,180.00,0.00,OPEN,0
557314.171,1,0,0,1.000,1.000,0.914,-90.00,180.00,0.00,OPEN,0
557314.182,1,0,0,1.000,1.000,0.914,-90.00,180.00,0.00,OPEN,0
557314.193,1,0,0,1.000,1.000,0.914,-90.00,180.00,0.00,OPEN,0
557314.204,1,0,0,1.000,1.000,0.912,-90.00,180.00,0.00,OPEN,0
557314.214,1,0,0,1.000,1.000,0.912,-90.00,180.00,0.00,OPEN,0
557314.225,1,0,0,1.000,1.000,0.912,-90.00,180.00,0.00,OPEN,0
557314.236,1,0,0,1.000,1.000,0.912,-90.00,180.00,0.00,OPEN,0
557314.247,1,0,0,1.000,1.000,0.912,-90.00,180.00,0.00,OPEN,0
557314.258,1,0,0,1.000,1.000,0.868,-90.00,180.00,0.00,OPEN,0
557314.269,1,0,0,1.000,1.000,0.868,-90.00,180.00,0.00,OPEN,0
557314.280,1,0,0,1.000,1.000,0.868,-90.00,180.00,0.00,OPEN,0
557314.291,1,0,0,1.000,1.000,0.868,-90.00,180.00,0.00,OPEN,0
557314.301,1,0,0,1.000,1.000,0.875,-90.00,180.00,0.00,OPEN,0
557314.312,1,0,0,1.000,1.000,0.875,-90.00,180.00,0.00,OPEN,0
557314.323,1,0,0,1.000,1.000,0.875,-90.00,180.00,0.00,OPEN,0
557314.334,1,0,0,1.000,1.000,0.875,-90.00,180.00,0.00,OPEN,0
557314.345,1,0,0,1.000,1.000,0.875,-90.00,180.00,0.00,OPEN,0
557314.356,1,0,0,1.000,1.000,0.970,-90.00,180.00,0.00,OPEN,0
557314.367,1,0,0,1.000,1.000,0.970,-90.00,180.00,0.00,OPEN,0
557314.378,1,0,0,1.000,1.000,0.970,-90.00,180.00,0.00,OPEN,0
557314.388,1,0,0,1.000,1.000,0.970,-90.00,180.00,0.00,OPEN,0
557314.400,1,0,0,1.000,1.000,0.975,-90.00,180.00,0.00,OPEN,0
557314.410,1,0,0,1.000,1.000,0.975,-90.00,180.00,0.00,OPEN,0
557314.421,1,0,0,1.000,1.000,0.975,-90.00,180.00,0.00,OPEN,0
557314.433,1,0,0,1.000,1.000,0.975,-90.00,180.00,0.00,OPEN,0
557314.444,1,0,0,1.000,1.000,0.975,-90.00,180.00,0.00,OPEN,0
557314.455,1,0,0,1.000,1.000,0.989,-90.00,180.00,0.00,OPEN,0
557314.466,1,0,0,1.000,1.000,0.989,-90.00,180.00,0.00,OPEN,0
557314.476,1,0,0,1.000,1.000,0.989,-90.00,180.00,0.00,OPEN,0
557314.487,1,0,0,1.000,1.000,0.989,-90.00,180.00,0.00,OPEN,0
557314.498,1,0,0,1.000,1.000,0.997,-90.00,180.00,0.00,OPEN,0
557314.509,1,0,0,1.000,1.000,0.997,-90.00,180.00,0.00,OPEN,0
557314.520,1,0,0,1.000,1.000,0.997,-90.00,180.00,0.00,OPEN,0
557314.531,1,0,0,1.000,1.000,0.997,-90.00,180.00,0.00,OPEN,0
557314.541,1,0,0,1.000,1.000,0.997,-90.00,180.00,0.00,OPEN,0
557314.552,1,0,0,1.000,1.000,0.997,-90.00,180.00,0.00,OPEN,0
557314.563,1,0,0,1.000,1.000,0.997,-90.00,180.00,0.00,OPEN,0
557314.574,1,0,0,1.000,1.000,0.997,-90.00,180.00,0.00,OPEN,0
557314.585,1,0,0,1.000,1.000,0.997,-90.00,180.00,0.00,OPEN,0
557314.596,1,0,0,1.000,1.000,0.997,-90.00,180.00,0.00,OPEN,0
557314.607,1,0,0,1.000,1.000,0.997,-90.00,180.00,0.00,OPEN,0
557314.618,1,0,0,1.000,1.000,0.997,-90.00,180.00,0.00,OPEN,0
557314.629,1,0,0,1.000,1.000,0.997,-90.00,180.00,0.00,OPEN,0
557314.640,1,0,0,1.000,1.000,0.997,-90.00,180.00,0.00,OPEN,0
557314.651,1,0,0,1.000,1.000,0.995,-90.00,180.00,0.00,OPEN,0
557314.662,1,0,0,1.000,1.000,0.995,-90.00,180.00,0.00,OPEN,0
557314.673,1,0,0,1.000,1.000,0.995,-90.00,180.00,0.00,OPEN,0
557314.683,1,0,0,1.000,1.000,0.995,-90.00,180.00,0.00,OPEN,0
557314.694,1,0,0,1.000,1.000,0.995,-90.00,180.00,0.00,OPEN,0
557314.704,1,0,0,1.000,1.000,0.992,-90.00,180.00,0.00,OPEN,0
557314.715,1,0,0,1.000,1.000,0.992,-90.00,180.00,0.00,OPEN,0
557314.726,1,0,0,1.000,1.000,0.992,-90.00,180.00,0.00,OPEN,0
557314.737,1,0,0,1.000,1.000,0.992,-90.00,180.00,0.00,OPEN,0
557314.748,1,0,0,1.000,1.000,0.988,-90.00,180.00,0.00,OPEN,0
557314.760,1,0,0,1.000,1.000,0.988,-90.00,180.00,0.00,OPEN,0
557314.770,1,0,0,1.000,1.000,0.988,-90.00,180.00,0.00,OPEN,0
557314.781,1,0,0,1.000,1.000,0.988,-90.00,180.00,0.00,OPEN,0
557314.791,1,0,0,1.000,1.000,0.988,-90.00,180.00,0.00,OPEN,0
557314.803,1,0,0,1.000,1.000,0.987,-90.00,180.00,0.00,OPEN,0
557314.814,1,0,0,1.000,1.000,0.987,-90.00,180.00,0.00,OPEN,0
557314.824,1,0,0,1.000,1.000,0.987,-90.00,180.00,0.00,OPEN,0
557314.836,1,0,0,1.000,1.000,0.987,-90.00,180.00,0.00,OPEN,0
557314.847,1,0,0,1.000,1.000,0.987,-90.00,180.00,0.00,OPEN,0
557314.857,1,0,0,1.000,1.000,0.978,-90.00,180.00,0.00,OPEN,0
557314.868,1,0,0,1.000,1.000,0.978,-90.00,180.00,0.00,OPEN,0
557314.878,1,0,0,1.000,1.000,0.978,-90.00,180.00,0.00,OPEN,0
557314.889,1,0,0,1.000,1.000,0.978,-90.00,180.00,0.00,OPEN,0
557314.900,1,0,0,1.000,1.000,0.974,-90.00,180.00,0.00,OPEN,0
557314.911,1,0,0,1.000,1.000,0.974,-90.00,180.00,0.00,OPEN,0
557314.922,1,0,0,1.000,1.000,0.974,-90.00,180.00,0.00,OPEN,0
557314.932,1,0,0,1.000,1.000,0.974,-90.00,180.00,0.00,OPEN,0
557314.944,1,0,0,1.000,1.000,0.974,-90.00,180.00,0.00,OPEN,0
557314.955,1,0,0,1.000,1.000,0.980,-90.00,180.00,0.00,OPEN,0
557314.965,1,0,0,1.000,1.000,0.980,-90.00,180.00,0.00,OPEN,0
557314.976,1,0,0,1.000,1.000,0.980,-90.00,180.00,0.00,OPEN,0
557314.987,1,0,0,1.000,1.000,0.980,-90.00,180.00,0.00,OPEN,0
557314.998,1,0,0,1.000,1.000,0.980,-90.00,180.00,0.00,OPEN,0
557315.008,1,0,0,1.000,1.000,0.985,-90.00,180.00,0.00,OPEN,0
557315.020,1,0,0,1.000,1.000,0.985,-90.00,180.00,0.00,OPEN,0
557315.031,1,0,0,1.000,1.000,0.985,-90.00,180.00,0.00,OPEN,0
557315.041,1,0,0,1.000,1.000,0.985,-90.00,180.00,0.00,OPEN,0
557315.052,1,0,0,1.000,1.000,0.993,-90.00,180.00,0.00,OPEN,0
557315.063,1,0,0,1.000,1.000,0.993,-90.00,180.00,0.00,OPEN,0
557315.073,1,0,0,1.000,1.000,0.993,-90.00,180.00,0.00,OPEN,0
557315.084,1,0,0,1.000,1.000,0.993,-90.00,180.00,0.00,OPEN,0
557315.095,1,0,0,1.000,1.000,0.993,-90.00,180.00,0.00,OPEN,0
557315.105,1,0,0,1.000,1.000,0.992,-90.00,180.00,0.00,OPEN,0
557315.116,1,0,0,1.000,1.000,0.992,-90.00,180.00,0.00,OPEN,0
557315.127,1,0,0,1.000,1.000,0.992,-90.00,180.00,0.00,OPEN,0
557315.138,1,0,0,1.000,1.000,0.992,-90.00,180.00,0.00,OPEN,0
557315.149,1,0,0,1.000,1.000,0.990,-90.00,180.00,0.00,OPEN,0
557315.160,1,0,0,1.000,1.000,0.990,-90.00,180.00,0.00,OPEN,0
557315.170,1,0,0,1.000,1.000,0.990,-90.00,180.00,0.00,OPEN,0
557315.181,1,0,0,1.000,1.000,0.990,-90.00,180.00,0.00,OPEN,0
557315.192,1,0,0,1.000,1.000,0.990,-90.00,180.00,0.00,OPEN,0
557315.203,1,0,0,1.000,1.000,0.988,-90.00,180.00,0.00,OPEN,0
557315.214,1,0,0,1.000,1.000,0.988,-90.00,180.00,0.00,OPEN,0
557315.225,1,0,0,1.000,1.000,0.988,-90.00,180.00,0.00,OPEN,0
557315.236,1,0,0,1.000,1.000,0.988,-90.00,180.00,0.00,OPEN,0
557315.247,1,0,0,1.000,1.000,0.988,-90.00,180.00,0.00,OPEN,0
557315.258,1,0,0,1.000,1.000,0.989,-90.00,180.00,0.00,OPEN,0
557315.269,1,0,0,1.000,1.000,0.989,-90.00,180.00,0.00,OPEN,0
557315.280,1,0,0,1.000,1.000,0.989,-90.00,180.00,0.00,OPEN,0
557315.291,1,0,0,1.000,1.000,0.989,-90.00,180.00,0.00,OPEN,0
557315.303,1,0,0,1.000,1.000,0.985,-90.00,180.00,0.00,OPEN,0
557315.314,1,0,0,1.000,1.000,0.985,-90.00,180.00,0.00,OPEN,0
557315.325,1,0,0,1.000,1.000,0.985,-90.00,180.00,0.00,OPEN,0
557315.336,1,0,0,1.000,1.000,0.985,-90.00,180.00,0.00,OPEN,0
557315.346,1,0,0,1.000,1.000,0.985,-90.00,180.00,0.00,OPEN,0
557315.357,1,0,0,1.000,1.000,0.986,-90.00,180.00,0.00,OPEN,0
557315.368,1,0,0,1.000,1.000,0.986,-90.00,180.00,0.00,OPEN,0
557315.379,1,0,0,1.000,1.000,0.986,-90.00,180.00,0.00,OPEN,0
557315.390,1,0,0,1.000,1.000,0.986,-90.00,180.00,0.00,OPEN,0
557315.401,1,0,0,1.000,1.000,0.984,-90.00,180.00,0.00,OPEN,0
557315.412,1,0,0,1.000,1.000,0.984,-90.00,180.00,0.00,OPEN,0
557315.423,1,0,0,1.000,1.000,0.984,-90.00,180.00,0.00,OPEN,0
557315.434,1,0,0,1.000,1.000,0.984,-90.00,180.00,0.00,OPEN,0
557315.444,1,0,0,1.000,1.000,0.984,-90.00,180.00,0.00,OPEN,0
557315.455,1,0,0,1.000,1.000,0.984,-90.00,180.00,0.00,OPEN,0
557315.466,1,0,0,1.000,1.000,0.984,-90.00,180.00,0.00,OPEN,0
557315.477,1,0,0,1.000,1.000,0.984,-90.00,180.00,0.00,OPEN,0
557315.488,1,0,0,1.000,1.000,0.984,-90.00,180.00,0.00,OPEN,0
557315.498,1,0,0,1.000,1.000,0.985,-90.00,180.00,0.00,OPEN,0
557315.509,1,0,0,1.000,1.000,0.985,-90.00,180.00,0.00,OPEN,0
557315.520,1,0,0,1.000,1.000,0.985,-90.00,180.00,0.00,OPEN,0
557315.531,1,0,0,1.000,1.000,0.985,-90.00,180.00,0.00,OPEN,0
557315.543,1,0,0,1.000,1.000,0.985,-90.00,180.00,0.00,OPEN,0
557315.554,1,0,0,1.000,1.000,0.985,-90.00,180.00,0.00,OPEN,0
557315.564,1,0,0,1.000,1.000,0.985,-90.00,180.00,0.00,OPEN,0
557315.576,1,0,0,1.000,1.000,0.985,-90.00,180.00,0.00,OPEN,0
557315.587,1,0,0,1.000,1.000,0.985,-90.00,180.00,0.00,OPEN,0
557315.599,1,0,0,1.000,1.000,0.985,-90.00,180.00,0.00,OPEN,0
557315.609,1,0,0,1.000,1.000,0.985,-90.00,180.00,0.00,OPEN,0
557315.620,1,0,0,1.000,1.000,0.985,-90.00,180.00,0.00,OPEN,0
557315.631,1,0,0,1.000,1.000,0.985,-90.00,180.00,0.00,OPEN,0
557315.642,1,0,0,1.000,1.000,0.985,-90.00,180.00,0.00,OPEN,0
557315.653,1,0,0,1.000,1.000,0.983,-90.00,180.00,0.00,OPEN,0
557315.664,1,0,0,1.000,1.000,0.983,-90.00,180.00,0.00,OPEN,0
557315.675,1,0,0,1.000,1.000,0.983,-90.00,180.00,0.00,OPEN,0
557315.687,1,0,0,1.000,1.000,0.983,-90.00,180.00,0.00,OPEN,0
557315.698,1,0,0,1.000,1.000,0.986,-90.00,180.00,0.00,OPEN,0
557315.709,1,0,0,1.000,1.000,0.986,-90.00,180.00,0.00,OPEN,0
557315.720,1,0,0,1.000,1.000,0.986,-90.00,180.00,0.00,OPEN,0
557315.730,1,0,0,1.000,1.000,0.986,-90.00,180.00,0.00,OPEN,0
557315.741,1,0,0,1.000,1.000,0.986,-90.00,180.00,0.00,OPEN,0
557315.751,1,0,0,1.000,1.000,0.986,-90.00,180.00,0.00,OPEN,0
557315.762,1,0,0,1.000,1.000,0.986,-90.00,180.00,0.00,OPEN,0
557315.773,1,0,0,1.000,1.000,0.986,-90.00,180.00,0.00,OPEN,0
557315.784,1,0,0,1.000,1.000,0.986,-90.00,180.00,0.00,OPEN,0
557315.794,1,0,0,1.000,1.000,0.986,-90.00,180.00,0.00,OPEN,0
557315.805,1,0,0,1.000,1.000,0.982,-90.00,180.00,0.00,OPEN,0
557315.816,1,0,0,1.000,1.000,0.982,-90.00,180.00,0.00,OPEN,0
557315.826,1,0,0,1.000,1.000,0.982,-90.00,180.00,0.00,OPEN,0
557315.837,1,0,0,1.000,1.000,0.982,-90.00,180.00,0.00,OPEN,0
557315.847,1,0,0,1.000,1.000,0.982,-90.00,180.00,0.00,OPEN,0
557315.860,1,0,0,1.000,1.000,0.985,-90.00,180.00,0.00,OPEN,0
557315.871,1,0,0,1.000,1.000,0.985,-90.00,180.00,0.00,OPEN,0
557315.882,1,0,0,1.000,1.000,0.985,-90.00,180.00,0.00,OPEN,0
557315.893,1,0,0,1.000,1.000,0.985,-90.00,180.00,0.00,OPEN,0
557315.904,1,0,0,1.000,1.000,0.987,-90.00,180.00,0.00,OPEN,0
557315.915,1,0,0,1.000,1.000,0.987,-90.00,180.00,0.00,OPEN,0
557315.926,1,0,0,1.000,1.000,0.987,-90.00,180.00,0.00,OPEN,0
557315.937,1,0,0,1.000,1.000,0.987,-90.00,180.00,0.00,OPEN,0
557315.947,1,0,0,1.000,1.000,0.987,-90.00,180.00,0.00,OPEN,0
557315.958,1,0,0,1.000,1.000,0.990,-90.00,180.00,0.00,OPEN,0
557315.970,1,0,0,1.000,1.000,0.990,-90.00,180.00,0.00,OPEN,0
557315.981,1,0,0,1.000,1.000,0.990,-90.00,180.00,0.00,OPEN,0
557315.994,1,0,0,1.000,1.000,0.990,-90.00,180.00,0.00,OPEN,0
557316.005,1,0,0,1.000,1.000,0.983,-90.00,180.00,0.00,OPEN,0
557316.016,1,0,0,1.000,1.000,0.983,-90.00,180.00,0.00,OPEN,0
557316.027,1,0,0,1.000,1.000,0.983,-90.00,180.00,0.00,OPEN,0
557316.037,1,0,0,1.000,1.000,0.983,-90.00,180.00,0.00,OPEN,0
557316.048,1,0,0,1.000,1.000,0.983,-90.00,180.00,0.00,OPEN,0
557316.058,1,0,0,1.000,1.000,0.981,-90.00,180.00,0.00,OPEN,0
557316.069,1,0,0,1.000,1.000,0.981,-90.00,180.00,0.00,OPEN,0
557316.080,1,0,0,1.000,1.000,0.981,-90.00,180.00,0.00,OPEN,0
557316.091,1,0,0,1.000,1.000,0.981,-90.00,180.00,0.00,OPEN,0
557316.101,1,0,0,1.000,1.000,1.000,-90.00,180.00,0.00,OPEN,0
557316.112,1,0,0,1.000,1.000,1.000,-90.00,180.00,0.00,OPEN,0
557316.123,1,0,0,1.000,1.000,1.000,-90.00,180.00,0.00,OPEN,0
557316.133,1,0,0,1.000,1.000,1.000,-90.00,180.00,0.00,OPEN,0
557316.144,1,0,0,1.000,1.000,1.000,-90.00,180.00,0.00,OPEN,0
557316.155,1,0,0,1.000,1.000,1.000,-90.00,180.00,0.00,OPEN,0
557316.166,1,0,0,1.000,1.000,1.000,-90.00,180.00,0.00,OPEN,0
557316.177,1,0,0,1.000,1.000,1.000,-90.00,180.00,0.00,OPEN,0
557316.187,1,0,0,1.000,1.000,1.000,-90.00,180.00,0.00,OPEN,0
557316.198,1,0,0,1.000,1.000,1.000,-90.00,180.00,0.00,OPEN,0
557316.209,1,0,0,1.000,1.000,1.000,-90.00,180.00,0.00,OPEN,0
557316.220,1,0,0,1.000,1.000,1.000,-90.00,180.00,0.00,OPEN,0
557316.231,1,0,0,1.000,1.000,1.000,-90.00,180.00,0.00,OPEN,0
557316.241,1,0,0,1.000,1.000,1.000,-90.00,180.00,0.00,OPEN,0
557316.254,1,0,0,1.000,1.000,1.000,-90.00,180.00,0.00,OPEN,0
557316.264,1,0,0,1.000,1.000,1.000,-90.00,180.00,0.00,OPEN,0
557316.275,1,0,0,1.000,1.000,1.000,-90.00,180.00,0.00,OPEN,0
557316.287,1,0,0,1.000,1.000,1.000,-90.00,180.00,0.00,OPEN,0
557316.297,1,0,0,1.000,1.000,1.000,-90.00,180.00,0.00,OPEN,0
557316.308,1,0,0,1.000,1.000,1.000,-90.00,180.00,0.00,OPEN,0
557316.319,1,0,0,1.000,1.000,1.000,-90.00,180.00,0.00,OPEN,0
557316.330,1,0,0,1.000,1.000,1.000,-90.00,180.00,0.00,OPEN,0
557316.341,1,0,0,1.000,1.000,1.000,-90.00,180.00,0.00,OPEN,0
557316.351,1,0,0,1.000,1.000,1.000,-90.00,180.00,0.00,OPEN,0
557316.362,1,0,0,1.000,1.000,1.000,-90.00,180.00,0.00,OPEN,0
557316.373,1,0,0,1.000,1.000,1.000,-90.00,180.00,0.00,OPEN,0
557316.383,1,0,0,1.000,1.000,1.000,-90.00,180.00,0.00,OPEN,0
557316.394,1,0,0,1.000,1.000,1.000,-90.00,180.00,0.00,OPEN,0
557316.405,1,0,0,1.000,1.000,1.000,-90.00,180.00,0.00,OPEN,0
557316.415,1,0,0,1.000,1.000,1.000,-90.00,180.00,0.00,OPEN,0
557316.426,1,0,0,1.000,1.000,1.000,-90.00,180.00,0.00,OPEN,0
557316.437,1,0,0,1.000,1.000,1.000,-90.00,180.00,0.00,OPEN,0
557316.448,1,0,0,1.000,1.000,1.000,-90.00,180.00,0.00,OPEN,0
557316.459,1,0,0,1.000,1.000,1.000,-90.00,180.00,0.00,OPEN,0
557316.470,1,0,0,1.000,1.000,1.000,-90.00,180.00,0.00,OPEN,0
557316.481,1,0,0,1.000,1.000,1.000,-90.00,180.00,0.00,OPEN,0
557316.493,1,0,0,1.000,1.000,1.000,-90.00,180.00,0.00,OPEN,0
557316.504,1,0,0,1.000,1.000,1.000,-90.00,180.00,0.00,OPEN,0
557316.514,1,0,0,1.000,1.000,1.000,-90.00,180.00,0.00,OPEN,0
557316.525,1,0,0,1.000,1.000,1.000,-90.00,180.00,0.00,OPEN,0
557316.537,1,0,0,1.000,1.000,1.000,-90.00,180.00,0.00,OPEN,0
557316.548,1,0,0,1.000,1.000,1.000,-90.00,180.00,0.00,OPEN,0
557316.559,1,0,0,1.000,1.000,1.000,-90.00,180.00,0.00,OPEN,0
557316.570,1,0,0,1.000,1.000,1.000,-90.00,180.00,0.00,OPEN,0
557316.581,1,0,0,1.000,1.000,1.000,-90.00,180.00,0.00,OPEN,0
557316.592,1,0,0,1.000,1.000,1.000,-90.00,180.00,0.00,OPEN,0
557316.603,1,0,0,1.000,1.000,1.000,-90.00,180.00,0.00,OPEN,0
557316.614,1,0,0,1.000,1.000,1.000,-90.00,180.00,0.00,OPEN,0
557316.626,1,0,0,1.000,1.000,1.000,-90.00,180.00,0.00,OPEN,0
557316.637,1,0,0,1.000,1.000,1.000,-90.00,180.00,0.00,OPEN,0
557316.648,1,0,0,1.000,1.000,1.000,-90.00,180.00,0.00,OPEN,0
557316.659,1,0,0,1.000,1.000,1.000,-90.00,180.00,0.00,OPEN,0
557316.670,1,0,0,1.000,1.000,1.000,-90.00,180.00,0.00,OPEN,0
557316.681,1,0,0,1.000,1.000,1.000,-90.00,180.00,0.00,OPEN,0
557316.692,1,0,0,1.000,1.000,1.000,-90.00,180.00,0.00,OPEN,0
557316.703,1,0,0,1.000,1.000,1.000,-90.00,180.00,0.00,OPEN,0
557316.714,1,0,0,1.000,1.000,1.000,-90.00,180.00,0.00,OPEN,0
557316.725,1,0,0,1.000,1.000,1.000,-90.00,180.00,0.00,OPEN,0
557316.736,1,0,0,1.000,1.000,1.000,-90.00,180.00,0.00,OPEN,0
557316.747,1,0,0,1.000,1.000,1.000,-90.00,180.00,0.00,OPEN,0
557316.758,1,0,0,1.000,1.000,1.000,-90.00,180.00,0.00,OPEN,0
557316.770,1,0,0,1.000,1.000,1.000,-90.00,180.00,0.00,OPEN,0
557316.780,1,0,0,1.000,1.000,1.000,-90.00,180.00,0.00,OPEN,0
557316.791,1,0,0,1.000,1.000,1.000,-90.00,180.00,0.00,OPEN,0
557316.803,1,0,0,1.000,1.000,1.000,-90.00,180.00,0.00,OPEN,0
557316.813,1,0,0,1.000,1.000,1.000,-90.00,180.00,0.00,OPEN,0
557316.824,1,0,0,1.000,1.000,1.000,-90.00,180.00,0.00,OPEN,0
557316.835,1,0,0,1.000,1.000,1.000,-90.00,180.00,0.00,OPEN,0
557316.846,1,0,0,1.000,1.000,1.000,-90.00,180.00,0.00,OPEN,0
557316.857,1,0,0,1.000,1.000,1.000,-90.00,180.00,0.00,OPEN,0
557316.867,1,0,0,1.000,1.000,1.000,-90.00,180.00,0.00,OPEN,0
557316.878,1,0,0,1.000,1.000,1.000,-90.00,180.00,0.00,OPEN,0
557316.889,1,0,0,1.000,1.000,1.000,-90.00,180.00,0.00,OPEN,0
557316.900,1,0,0,1.000,1.000,1.000,-90.00,180.00,0.00,OPEN,0
557316.911,1,0,0,1.000,1.000,1.000,-90.00,180.00,0.00,OPEN,0
557316.922,1,0,0,1.000,1.000,1.000,-90.00,180.00,0.00,OPEN,0
557316.932,1,0,0,1.000,1.000,1.000,-90.00,180.00,0.00,OPEN,0
557316.943,1,0,0,1.000,1.000,1.000,-90.00,180.00,0.00,OPEN,0
557316.954,1,0,0,1.000,1.000,1.000,-90.00,180.00,0.00,OPEN,0
557316.965,1,0,0,1.000,1.000,1.000,-90.00,180.00,0.00,OPEN,0
557316.976,1,0,0,1.000,1.000,1.000,-90.00,180.00,0.00,OPEN,0
557316.987,1,0,0,1.000,1.000,1.000,-90.00,180.00,0.00,OPEN,0
557316.998,1,1,1,1.000,1.000,1.000,0.00,90.00,0.00,OPEN,0
557317.008,1,1,1,1.000,1.000,1.000,0.00,90.00,0.00,OPEN,0
557317.019,1,1,1,1.000,1.000,1.000,0.00,90.00,0.00,OPEN,0
557317.030,1,1,1,1.000,1.000,1.000,0.00,90.00,0.00,OPEN,0
557317.042,1,1,1,1.000,1.000,1.000,0.00,90.00,0.00,OPEN,0
557317.053,1,1,1,1.000,1.000,0.715,0.00,90.00,0.00,OPEN,0
557317.064,1,1,1,1.000,1.000,0.715,0.00,90.00,0.00,OPEN,0
557317.077,1,1,1,1.000,1.000,0.715,0.00,90.00,0.00,OPEN,0
557317.089,1,1,1,1.000,1.000,0.715,0.00,90.00,0.00,OPEN,0
557317.100,1,1,1,1.000,1.000,0.898,0.00,90.00,0.00,OPEN,0
557317.110,1,1,1,1.000,1.000,0.898,0.00,90.00,0.00,OPEN,0
557317.121,1,1,1,1.000,1.000,0.898,0.00,90.00,0.00,OPEN,0
557317.132,1,1,1,1.000,1.000,0.898,0.00,90.00,0.00,OPEN,0
557317.144,1,1,1,1.000,1.000,0.898,0.00,90.00,0.00,OPEN,0
557317.155,1,1,1,1.000,1.000,0.759,0.00,90.00,0.00,OPEN,0
557317.166,1,1,1,1.000,1.000,0.759,0.00,90.00,0.00,OPEN,0
557317.176,1,1,1,1.000,1.000,0.759,0.00,90.00,0.00,OPEN,0
557317.187,1,1,1,1.000,1.000,0.759,0.00,90.00,0.00,OPEN,0
557317.198,1,1,1,1.000,1.000,1.000,0.00,90.00,0.00,OPEN,0
557317.208,1,1,1,1.000,1.000,1.000,0.00,90.00,0.00,OPEN,0
557317.220,1,1,1,1.000,1.000,1.000,0.00,90.00,0.00,OPEN,0
557317.230,1,1,1,1.000,1.000,1.000,0.00,90.00,0.00,OPEN,0
557317.241,1,1,1,1.000,1.000,1.000,0.00,90.00,0.00,OPEN,0
557317.253,1,1,1,1.000,1.000,0.997,0.00,90.00,0.00,OPEN,0
557317.264,1,1,1,1.000,1.000,0.997,0.00,90.00,0.00,OPEN,0
557317.274,1,1,1,1.000,1.000,0.997,0.00,90.00,0.00,OPEN,0
557317.285,1,1,1,1.000,1.000,0.997,0.00,90.00,0.00,OPEN,0
557317.296,1,1,1,1.000,1.000,0.997,0.00,90.00,0.00,OPEN,0
557317.307,1,1,1,0.996,1.000,1.000,0.00,90.00,0.00,OPEN,0
557317.318,1,1,1,0.996,1.000,1.000,0.00,90.00,0.00,OPEN,0
557317.328,1,1,1,0.996,1.000,1.000,0.00,90.00,0.00,OPEN,0
557317.339,1,1,1,0.996,1.000,1.000,0.00,90.00,0.00,OPEN,0
557317.350,1,1,1,0.830,1.000,1.000,0.00,90.00,0.00,OPEN,0
557317.361,1,1,1,0.830,1.000,1.000,0.00,90.00,0.00,OPEN,0
557317.371,1,1,1,0.830,1.000,1.000,0.00,90.00,0.00,OPEN,0
557317.382,1,1,1,0.830,1.000,1.000,0.00,90.00,0.00,OPEN,0
557317.392,1,1,1,0.830,1.000,1.000,0.00,90.00,0.00,OPEN,0
557317.403,1,1,1,1.000,1.000,1.000,0.00,90.00,0.00,OPEN,0
557317.414,1,1,1,1.000,1.000,1.000,0.00,90.00,0.00,OPEN,0
557317.425,1,1,1,1.000,1.000,1.000,0.00,90.00,0.00,OPEN,0
557317.437,1,1,1,1.000,1.000,1.000,0.00,90.00,0.00,OPEN,0
557317.448,1,0,1,1.000,1.000,1.000,0.00,180.00,0.00,OPEN,0
557317.459,1,0,1,1.000,1.000,1.000,0.00,180.00,0.00,OPEN,0
557317.470,1,0,1,1.000,1.000,1.000,0.00,180.00,0.00,OPEN,0
557317.481,1,0,1,1.000,1.000,1.000,0.00,180.00,0.00,OPEN,0
557317.491,1,0,1,1.000,1.000,1.000,0.00,180.00,0.00,OPEN,0
557317.503,1,0,1,1.000,1.000,1.000,0.00,180.00,0.00,OPEN,0
557317.513,1,0,1,1.000,1.000,1.000,0.00,180.00,0.00,OPEN,0
557317.524,1,0,1,1.000,1.000,1.000,0.00,180.00,0.00,OPEN,0
557317.535,1,0,1,1.000,1.000,1.000,0.00,180.00,0.00,OPEN,0
557317.545,1,0,1,1.000,1.000,1.000,0.00,180.00,0.00,OPEN,0
557317.556,1,0,1,1.000,1.000,1.000,0.00,180.00,0.00,OPEN,0
557317.567,1,0,1,1.000,1.000,1.000,0.00,180.00,0.00,OPEN,0
557317.577,1,0,1,1.000,1.000,1.000,0.00,180.00,0.00,OPEN,0
557317.588,1,0,1,1.000,1.000,1.000,0.00,180.00,0.00,OPEN,0
557317.599,1,0,0,1.000,1.000,1.000,-90.00,180.00,0.00,OPEN,0
557317.609,1,0,0,1.000,1.000,1.000,-90.00,180.00,0.00,OPEN,0
557317.620,1,0,0,1.000,1.000,1.000,-90.00,180.00,0.00,OPEN,0
557317.631,1,0,0,1.000,1.000,1.000,-90.00,180.00,0.00,OPEN,0
557317.641,1,0,0,1.000,1.000,1.000,-90.00,180.00,0.00,OPEN,0
557317.653,1,0,0,1.000,1.000,1.000,-90.00,180.00,0.00,OPEN,0
557317.663,1,0,0,1.000,1.000,1.000,-90.00,180.00,0.00,OPEN,0
557317.674,1,0,0,1.000,1.000,1.000,-90.00,180.00,0.00,OPEN,0
557317.685,1,0,0,1.000,1.000,1.000,-90.00,180.00,0.00,OPEN,0
557317.695,1,0,0,1.000,1.000,1.000,-90.00,180.00,0.00,OPEN,0
557317.706,1,0,0,1.000,0.842,0.927,-90.00,180.00,0.00,OPEN,0
557317.716,1,0,0,1.000,0.842,0.927,-90.00,180.00,0.00,OPEN,0
557317.727,1,0,0,1.000,0.842,0.927,-90.00,180.00,0.00,OPEN,0
557317.738,1,0,0,1.000,0.842,0.927,-90.00,180.00,0.00,OPEN,0
557317.749,0,0,0,1.000,1.000,0.582,-90.00,180.00,0.00,OPEN,0
557317.760,0,0,0,1.000,1.000,0.582,-90.00,180.00,0.00,OPEN,0
557317.771,0,0,0,1.000,1.000,0.582,-90.00,180.00,0.00,OPEN,0
557317.782,0,0,0,1.000,1.000,0.582,-90.00,180.00,0.00,OPEN,0
557317.793,0,0,0,1.000,1.000,0.582,-90.00,180.00,0.00,OPEN,0
557317.804,0,0,0,1.000,1.000,0.663,-90.00,180.00,0.00,OPEN,0
557317.814,0,0,0,1.000,1.000,0.663,-90.00,180.00,0.00,OPEN,0
557317.825,0,0,0,1.000,1.000,0.663,-90.00,180.00,0.00,OPEN,0
557317.836,0,0,0,1.000,1.000,0.663,-90.00,180.00,0.00,OPEN,0
557317.847,0,0,0,1.000,1.000,0.663,-90.00,180.00,0.00,OPEN,0
557317.858,0,0,0,1.000,1.000,0.621,-90.00,180.00,0.00,OPEN,0
557317.868,0,0,0,1.000,1.000,0.621,-90.00,180.00,0.00,OPEN,0
557317.879,0,0,0,1.000,1.000,0.621,-90.00,180.00,0.00,OPEN,0
557317.890,0,0,0,1.000,1.000,0.621,-90.00,180.00,0.00,OPEN,0
557317.901,0,0,0,1.000,1.000,0.621,-90.00,180.00,0.00,OPEN,0
557317.911,0,0,0,1.000,1.000,0.621,-90.00,180.00,0.00,OPEN,0
557317.922,0,0,0,1.000,1.000,0.621,-90.00,180.00,0.00,OPEN,0
557317.933,0,0,0,1.000,1.000,0.621,-90.00,180.00,0.00,OPEN,0
557317.944,0,0,0,1.000,1.000,0.621,-90.00,180.00,0.00,OPEN,0
557317.955,0,0,0,1.000,1.000,0.957,-90.00,180.00,0.00,OPEN,0
557317.966,0,0,0,1.000,1.000,0.957,-90.00,180.00,0.00,OPEN,0
557317.976,0,0,0,1.000,1.000,0.957,-90.00,180.00,0.00,OPEN,0
557317.987,0,0,0,1.000,1.000,0.957,-90.00,180.00,0.00,OPEN,0
557317.998,0,0,0,1.000,1.000,0.968,-90.00,180.00,0.00,OPEN,0
557318.009,0,0,0,1.000,1.000,0.968,-90.00,180.00,0.00,OPEN,0
557318.020,0,0,0,1.000,1.000,0.968,-90.00,180.00,0.00,OPEN,0
557318.031,0,0,0,1.000,1.000,0.968,-90.00,180.00,0.00,OPEN,0
557318.042,0,0,0,1.000,1.000,0.968,-90.00,180.00,0.00,OPEN,0
557318.053,0,0,0,1.000,1.000,0.996,-90.00,180.00,0.00,OPEN,0
557318.064,0,0,0,1.000,1.000,0.996,-90.00,180.00,0.00,OPEN,0
557318.074,0,0,0,1.000,1.000,0.996,-90.00,180.00,0.00,OPEN,0
557318.085,0,0,0,1.000,1.000,0.996,-90.00,180.00,0.00,OPEN,0
557318.096,0,0,0,1.000,1.000,0.996,-90.00,180.00,0.00,OPEN,0
557318.107,0,0,0,1.000,1.000,0.998,-90.00,180.00,0.00,OPEN,0
557318.118,0,0,0,1.000,1.000,0.998,-90.00,180.00,0.00,OPEN,0
557318.128,0,0,0,1.000,1.000,0.998,-90.00,180.00,0.00,OPEN,0
557318.139,0,0,0,1.000,1.000,0.998,-90.00,180.00,0.00,OPEN,0
557318.149,0,0,0,1.000,0.899,1.000,-90.00,180.00,0.00,OPEN,0
557318.160,0,0,0,1.000,0.899,1.000,-90.00,180.00,0.00,OPEN,0
557318.171,0,0,0,1.000,0.899,1.000,-90.00,180.00,0.00,OPEN,0
557318.181,0,0,0,1.000,0.899,1.000,-90.00,180.00,0.00,OPEN,0
557318.192,0,0,0,1.000,0.899,1.000,-90.00,180.00,0.00,OPEN,0
557318.203,0,0,0,1.000,0.771,0.996,-90.00,180.00,0.00,OPEN,0
557318.214,0,0,0,1.000,0.771,0.996,-90.00,180.00,0.00,OPEN,0
557318.224,0,0,0,1.000,0.771,0.996,-90.00,180.00,0.00,OPEN,0
557318.235,0,0,0,1.000,0.771,0.996,-90.00,180.00,0.00,OPEN,0
557318.246,0,0,0,1.000,0.771,0.996,-90.00,180.00,0.00,OPEN,0
557318.257,0,0,0,1.000,0.990,1.000,-90.00,180.00,0.00,OPEN,0
557318.268,0,0,0,1.000,0.990,1.000,-90.00,180.00,0.00,OPEN,0
557318.278,0,0,0,1.000,0.990,1.000,-90.00,180.00,0.00,OPEN,0
557318.289,0,0,0,1.000,0.990,1.000,-90.00,180.00,0.00,OPEN,0
557318.299,0,0,0,1.000,1.000,1.000,-90.00,180.00,0.00,OPEN,0
557318.310,0,0,0,1.000,1.000,1.000,-90.00,180.00,0.00,OPEN,0
557318.321,0,0,0,1.000,1.000,1.000,-90.00,180.00,0.00,OPEN,0
557318.332,0,0,0,1.000,1.000,1.000,-90.00,180.00,0.00,OPEN,0
557318.343,0,0,0,1.000,1.000,1.000,-90.00,180.00,0.00,OPEN,0
557318.353,0,0,0,1.000,0.999,0.974,-90.00,180.00,0.00,OPEN,0
557318.364,0,0,0,1.000,0.999,0.974,-90.00,180.00,0.00,OPEN,0
557318.375,0,0,0,1.000,0.999,0.974,-90.00,180.00,0.00,OPEN,0
557318.387,0,0,0,1.000,0.999,0.974,-90.00,180.00,0.00,OPEN,0
557318.397,0,0,0,1.000,0.999,0.974,-90.00,180.00,0.00,OPEN,0
557318.408,0,0,0,1.000,0.579,0.697,-90.00,180.00,0.00,OPEN,0
557318.420,0,0,0,1.000,0.579,0.697,-90.00,180.00,0.00,OPEN,0
557318.431,0,0,0,1.000,0.579,0.697,-90.00,180.00,0.00,OPEN,0
557318.443,0,0,0,1.000,0.579,0.697,-90.00,180.00,0.00,OPEN,0
557318.454,0,0,0,1.000,0.989,0.891,-90.00,180.00,0.00,OPEN,0
557318.464,0,0,0,1.000,0.989,0.891,-90.00,180.00,0.00,OPEN,0
557318.475,0,0,0,1.000,0.989,0.891,-90.00,180.00,0.00,OPEN,0
557318.487,0,0,0,1.000,0.989,0.891,-90.00,180.00,0.00,OPEN,0
557318.497,0,0,0,1.000,0.989,0.891,-90.00,180.00,0.00,OPEN,0
557318.508,0,0,0,1.000,0.979,0.921,-90.00,180.00,0.00,OPEN,0
557318.520,0,0,0,1.000,0.979,0.921,-90.00,180.00,0.00,OPEN,0
557318.531,0,0,0,1.000,0.979,0.921,-90.00,180.00,0.00,OPEN,0
557318.541,0,0,0,1.000,0.979,0.921,-90.00,180.00,0.00,OPEN,0
557318.553,0,0,0,1.000,0.809,0.967,-90.00,180.00,0.00,OPEN,0
557318.564,0,0,0,1.000,0.809,0.967,-90.00,180.00,0.00,OPEN,0
557318.575,0,0,0,1.000,0.809,0.967,-90.00,180.00,0.00,OPEN,0
557318.587,0,0,0,1.000,0.809,0.967,-90.00,180.00,0.00,OPEN,0
557318.597,0,0,0,1.000,0.809,0.967,-90.00,180.00,0.00,OPEN,0
557318.608,0,0,1,1.000,0.820,0.995,0.00,180.00,0.00,OPEN,0
557318.620,0,0,1,1.000,0.820,0.995,0.00,180.00,0.00,OPEN,0
557318.630,0,0,1,1.000,0.820,0.995,0.00,180.00,0.00,OPEN,0
557318.641,0,0,1,1.000,0.820,0.995,0.00,180.00,0.00,OPEN,0
557318.652,0,0,1,1.000,1.000,1.000,0.00,180.00,0.00,OPEN,0
557318.662,0,0,1,1.000,1.000,1.000,0.00,180.00,0.00,OPEN,0
557318.673,0,0,1,1.000,1.000,1.000,0.00,180.00,0.00,OPEN,0
557318.684,0,0,1,1.000,1.000,1.000,0.00,180.00,0.00,OPEN,0
557318.695,0,0,1,1.000,1.000,1.000,0.00,180.00,0.00,OPEN,0
557318.706,0,1,1,1.000,1.000,1.000,0.00,90.00,0.00,OPEN,0
557318.717,0,1,1,1.000,1.000,1.000,0.00,90.00,0.00,OPEN,0
557318.728,0,1,1,1.000,1.000,1.000,0.00,90.00,0.00,OPEN,0
557318.738,0,1,1,1.000,1.000,1.000,0.00,90.00,0.00,OPEN,0
557318.749,0,1,1,1.000,1.000,1.000,0.00,90.00,0.00,OPEN,0
557318.760,0,1,1,1.000,1.000,1.000,0.00,90.00,0.00,OPEN,0
557318.771,0,1,1,1.000,1.000,1.000,0.00,90.00,0.00,OPEN,0
557318.781,0,1,1,1.000,1.000,1.000,0.00,90.00,0.00,OPEN,0
557318.793,0,1,1,1.000,1.000,1.000,0.00,90.00,0.00,OPEN,0
557318.803,0,1,1,1.000,1.000,1.000,0.00,90.00,0.00,OPEN,0
557318.814,0,1,1,1.000,1.000,1.000,0.00,90.00,0.00,OPEN,0
557318.825,0,1,1,1.000,1.000,1.000,0.00,90.00,0.00,OPEN,0
557318.837,0,1,1,1.000,1.000,1.000,0.00,90.00,0.00,OPEN,0
557318.848,0,1,0,1.000,1.000,1.000,-90.00,90.00,0.00,OPEN,0
557318.859,0,1,0,1.000,1.000,1.000,-90.00,90.00,0.00,OPEN,0
557318.870,0,1,0,1.000,1.000,1.000,-90.00,90.00,0.00,OPEN,0
557318.881,0,1,0,1.000,1.000,1.000,-90.00,90.00,0.00,OPEN,0
557318.891,0,1,0,1.000,1.000,1.000,-90.00,90.00,0.00,OPEN,0
557318.902,0,1,0,1.000,1.000,1.000,-90.00,90.00,0.00,OPEN,0
557318.913,0,1,0,1.000,1.000,1.000,-90.00,90.00,0.00,OPEN,0
557318.924,0,1,0,1.000,1.000,1.000,-90.00,90.00,0.00,OPEN,0
557318.934,0,1,0,1.000,1.000,1.000,-90.00,90.00,0.00,OPEN,0
557318.945,0,1,0,1.000,1.000,1.000,-90.00,90.00,0.00,OPEN,0
557318.956,0,1,0,1.000,1.000,1.000,-90.00,90.00,0.00,OPEN,0
557318.967,0,1,0,1.000,1.000,1.000,-90.00,90.00,0.00,OPEN,0
557318.978,0,1,0,1.000,1.000,1.000,-90.00,90.00,0.00,OPEN,0
557318.989,0,1,0,1.000,1.000,1.000,-90.00,90.00,0.00,OPEN,0
557318.999,0,0,0,1.000,1.000,0.933,-90.00,180.00,0.00,OPEN,0
557319.010,0,0,0,1.000,1.000,0.933,-90.00,180.00,0.00,OPEN,0
557319.021,0,0,0,1.000,1.000,0.933,-90.00,180.00,0.00,OPEN,0
557319.032,0,0,0,1.000,1.000,0.933,-90.00,180.00,0.00,OPEN,0
557319.043,0,0,0,1.000,1.000,0.933,-90.00,180.00,0.00,OPEN,0
557319.054,0,0,0,1.000,1.000,0.617,-90.00,180.00,0.00,OPEN,0
557319.065,0,0,0,1.000,1.000,0.617,-90.00,180.00,0.00,OPEN,0
557319.076,0,0,0,1.000,1.000,0.617,-90.00,180.00,0.00,OPEN,0
557319.087,0,0,0,1.000,1.000,0.617,-90.00,180.00,0.00,OPEN,0
557319.097,0,0,0,1.000,1.000,0.617,-90.00,180.00,0.00,OPEN,0
557319.108,0,0,0,1.000,1.000,1.000,-90.00,180.00,0.00,OPEN,0
557319.121,0,0,0,1.000,1.000,1.000,-90.00,180.00,0.00,OPEN,0
557319.132,0,0,0,1.000,1.000,1.000,-90.00,180.00,0.00,OPEN,0
557319.143,0,0,0,1.000,1.000,1.000,-90.00,180.00,0.00,OPEN,0
557319.153,0,0,0,1.000,1.000,1.000,-90.00,180.00,0.00,OPEN,0
557319.164,0,0,0,1.000,1.000,1.000,-90.00,180.00,0.00,OPEN,0
557319.175,0,0,0,1.000,1.000,1.000,-90.00,180.00,0.00,OPEN,0
557319.188,0,0,0,1.000,1.000,1.000,-90.00,180.00,0.00,OPEN,0
557319.198,0,0,0,1.000,1.000,1.000,-90.00,180.00,0.00,OPEN,0
557319.209,0,0,0,1.000,1.000,1.000,-90.00,180.00,0.00,OPEN,0
557319.220,0,0,0,1.000,1.000,1.000,-90.00,180.00,0.00,OPEN,0
557319.230,0,0,0,1.000,1.000,1.000,-90.00,180.00,0.00,OPEN,0
557319.241,0,0,0,1.000,1.000,1.000,-90.00,180.00,0.00,OPEN,0
557319.254,0,0,0,1.000,1.000,1.000,-90.00,180.00,0.00,OPEN,0
557319.265,0,0,0,1.000,1.000,1.000,-90.00,180.00,0.00,OPEN,0
557319.276,0,0,0,1.000,1.000,1.000,-90.00,180.00,0.00,OPEN,0
557319.287,0,0,0,1.000,1.000,1.000,-90.00,180.00,0.00,OPEN,0
557319.297,0,0,0,1.000,1.000,1.000,-90.00,180.00,0.00,OPEN,0
557319.309,0,0,0,1.000,1.000,1.000,-90.00,180.00,0.00,OPEN,0
557319.321,0,0,0,1.000,1.000,1.000,-90.00,180.00,0.00,OPEN,0
557319.332,0,0,0,1.000,1.000,1.000,-90.00,180.00,0.00,OPEN,0
557319.342,0,0,0,1.000,1.000,1.000,-90.00,180.00,0.00,OPEN,0
557319.353,0,0,0,1.000,1.000,1.000,-90.00,180.00,0.00,OPEN,0
557319.364,0,0,0,1.000,1.000,1.000,-90.00,180.00,0.00,OPEN,0
557319.375,0,0,0,1.000,1.000,1.000,-90.00,180.00,0.00,OPEN,0
557319.386,0,0,0,1.000,1.000,1.000,-90.00,180.00,0.00,OPEN,0
557319.397,0,0,0,1.000,1.000,1.000,-90.00,180.00,0.00,OPEN,0
557319.408,0,0,0,1.000,1.000,1.000,-90.00,180.00,0.00,OPEN,0
557319.419,0,0,0,1.000,1.000,1.000,-90.00,180.00,0.00,OPEN,0
557319.430,0,0,0,1.000,1.000,1.000,-90.00,180.00,0.00,OPEN,0
557319.441,0,0,0,1.000,1.000,1.000,-90.00,180.00,0.00,OPEN,0
557319.452,0,0,0,1.000,1.000,1.000,-90.00,180.00,0.00,OPEN,0
557319.462,0,0,0,1.000,1.000,1.000,-90.00,180.00,0.00,OPEN,0
557319.473,0,0,0,1.000,1.000,1.000,-90.00,180.00,0.00,OPEN,0
557319.484,0,0,0,1.000,1.000,1.000,-90.00,180.00,0.00,OPEN,0
557319.495,0,0,0,1.000,1.000,1.000,-90.00,180.00,0.00,OPEN,0
557319.505,0,0,0,1.000,1.000,1.000,-90.00,180.00,0.00,OPEN,0
557319.516,0,0,0,1.000,1.000,1.000,-90.00,180.00,0.00,OPEN,0
557319.527,0,0,0,1.000,1.000,1.000,-90.00,180.00,0.00,OPEN,0
557319.538,0,0,0,1.000,1.000,1.000,-90.00,180.00,0.00,OPEN,0
557319.549,0,0,0,1.000,0.997,0.997,-90.00,180.00,0.00,OPEN,0
557319.560,0,0,0,1.000,0.997,0.997,-90.00,180.00,0.00,OPEN,0
557319.571,0,0,0,1.000,0.997,0.997,-90.00,180.00,0.00,OPEN,0
557319.581,0,0,0,1.000,0.997,0.997,-90.00,180.00,0.00,OPEN,0
557319.593,0,0,0,1.000,0.997,0.997,-90.00,180.00,0.00,OPEN,0
557319.604,0,0,0,1.000,1.000,1.000,-90.00,180.00,0.00,OPEN,0
557319.615,0,0,0,1.000,1.000,1.000,-90.00,180.00,0.00,OPEN,0
557319.625,0,0,0,1.000,1.000,1.000,-90.00,180.00,0.00,OPEN,0
557319.636,0,0,0,1.000,1.000,1.000,-90.00,180.00,0.00,OPEN,0
557319.647,0,0,0,1.000,1.000,1.000,-90.00,180.00,0.00,OPEN,0
557319.658,0,0,0,1.000,1.000,1.000,-90.00,180.00,0.00,OPEN,0
557319.669,0,0,0,1.000,1.000,1.000,-90.00,180.00,0.00,OPEN,0
557319.680,0,0,0,1.000,1.000,1.000,-90.00,180.00,0.00,OPEN,0
557319.691,0,0,0,1.000,1.000,1.000,-90.00,180.00,0.00,OPEN,0
557319.702,0,0,0,1.000,1.000,1.000,-90.00,180.00,0.00,OPEN,0
557319.713,0,0,0,1.000,1.000,1.000,-90.00,180.00,0.00,OPEN,0
557319.724,0,0,0,1.000,1.000,1.000,-90.00,180.00,0.00,OPEN,0
557319.744,0,0,0,1.000,1.000,1.000,-90.00,180.00,0.00,OPEN,0
557319.766,0,0,0,1.000,1.000,1.000,-90.00,180.00,0.00,OPEN,0
557319.779,0,0,0,1.000,1.000,1.000,-90.00,180.00,0.00,OPEN,0
557319.792,0,0,0,1.000,1.000,1.000,-90.00,180.00,0.00,OPEN,0
557319.803,0,0,0,1.000,1.000,1.000,-90.00,180.00,0.00,OPEN,0
557319.814,0,0,0,1.000,1.000,1.000,-90.00,180.00,0.00,OPEN,0
557319.825,0,0,0,1.000,1.000,1.000,-90.00,180.00,0.00,OPEN,0
557319.842,0,0,0,1.000,1.000,1.000,-90.00,180.00,0.00,OPEN,0
557319.853,0,0,0,1.000,1.000,1.000,-90.00,180.00,0.00,OPEN,0
557319.864,0,0,0,1.000,1.000,1.000,-90.00,180.00,0.00,OPEN,0
557319.875,0,0,0,1.000,1.000,1.000,-90.00,180.00,0.00,OPEN,0
557319.886,0,0,0,1.000,1.000,1.000,-90.00,180.00,0.00,OPEN,0
557319.897,0,0,0,1.000,1.000,1.000,-90.00,180.00,0.00,OPEN,0
557319.908,0,0,0,1.000,1.000,1.000,-90.00,180.00,0.00,OPEN,0
557319.919,0,0,0,1.000,1.000,1.000,-90.00,180.00,0.00,OPEN,0
557319.929,0,0,0,1.000,1.000,1.000,-90.00,180.00,0.00,OPEN,0
557319.940,0,0,0,1.000,1.000,1.000,-90.00,180.00,0.00,OPEN,0
557319.951,0,1,1,1.000,0.998,1.000,0.00,90.00,0.00,OPEN,0
557319.961,0,1,1,1.000,0.998,1.000,0.00,90.00,0.00,OPEN,0
557319.972,0,1,1,1.000,0.998,1.000,0.00,90.00,0.00,OPEN,0
557319.983,0,1,1,1.000,0.998,1.000,0.00,90.00,0.00,OPEN,0
557319.995,0,1,1,1.000,0.998,1.000,0.00,90.00,0.00,OPEN,0
557320.005,0,1,1,1.000,0.981,0.929,0.00,90.00,0.00,OPEN,0
557320.016,0,1,1,1.000,0.981,0.929,0.00,90.00,0.00,OPEN,0
557320.027,0,1,1,1.000,0.981,0.929,0.00,90.00,0.00,OPEN,0
557320.038,0,1,1,1.000,0.981,0.929,0.00,90.00,0.00,OPEN,0
557320.049,0,1,1,1.000,1.000,0.557,0.00,90.00,0.00,OPEN,0
557320.059,0,1,1,1.000,1.000,0.557,0.00,90.00,0.00,OPEN,0
557320.070,0,1,1,1.000,1.000,0.557,0.00,90.00,0.00,OPEN,0
557320.081,0,1,1,1.000,1.000,0.557,0.00,90.00,0.00,OPEN,0
557320.093,0,1,1,1.000,1.000,0.557,0.00,90.00,0.00,OPEN,0
557320.104,0,1,1,1.000,1.000,0.994,0.00,90.00,0.00,OPEN,0
557320.115,0,1,1,1.000,1.000,0.994,0.00,90.00,0.00,OPEN,0
557320.126,0,1,1,1.000,1.000,0.994,0.00,90.00,0.00,OPEN,0
557320.137,0,1,1,1.000,1.000,0.994,0.00,90.00,0.00,OPEN,0
557320.148,0,1,1,1.000,1.000,0.998,0.00,90.00,0.00,OPEN,0
557320.159,0,1,1,1.000,1.000,0.998,0.00,90.00,0.00,OPEN,0
557320.171,0,1,1,1.000,1.000,0.998,0.00,90.00,0.00,OPEN,0
557320.181,0,1,1,1.000,1.000,0.998,0.00,90.00,0.00,OPEN,0
557320.192,0,1,1,1.000,1.000,0.998,0.00,90.00,0.00,OPEN,0
557320.203,0,1,1,1.000,1.000,0.997,0.00,90.00,0.00,OPEN,0
557320.214,0,1,1,1.000,1.000,0.997,0.00,90.00,0.00,OPEN,0
557320.225,0,1,1,1.000,1.000,0.997,0.00,90.00,0.00,OPEN,0
557320.235,0,1,1,1.000,1.000,0.997,0.00,90.00,0.00,OPEN,0
557320.246,0,1,1,1.000,1.000,0.997,0.00,90.00,0.00,OPEN,0
557320.257,0,1,1,1.000,1.000,0.997,0.00,90.00,0.00,OPEN,0
557320.268,0,1,1,1.000,1.000,0.997,0.00,90.00,0.00,OPEN,0
557320.279,0,1,1,1.000,1.000,0.997,0.00,90.00,0.00,OPEN,0
557320.290,0,1,1,1.000,1.000,0.997,0.00,90.00,0.00,OPEN,0
557320.301,0,1,1,1.000,1.000,0.993,0.00,90.00,0.00,OPEN,0
557320.311,0,1,1,1.000,1.000,0.993,0.00,90.00,0.00,OPEN,0
557320.322,0,1,1,1.000,1.000,0.993,0.00,90.00,0.00,OPEN,0
557320.333,0,1,1,1.000,1.000,0.993,0.00,90.00,0.00,OPEN,0
557320.344,0,1,1,1.000,1.000,0.993,0.00,90.00,0.00,OPEN,0
557320.355,0,1,1,1.000,1.000,0.992,0.00,90.00,0.00,OPEN,0
557320.366,0,1,1,1.000,1.000,0.992,0.00,90.00,0.00,OPEN,0
557320.377,0,1,1,1.000,1.000,0.992,0.00,90.00,0.00,OPEN,0
557320.388,0,1,1,1.000,1.000,0.992,0.00,90.00,0.00,OPEN,0
557320.399,0,0,1,1.000,1.000,0.993,0.00,180.00,0.00,OPEN,0
557320.409,0,0,1,1.000,1.000,0.993,0.00,180.00,0.00,OPEN,0
557320.420,0,0,1,1.000,1.000,0.993,0.00,180.00,0.00,OPEN,0
557320.430,0,0,1,1.000,1.000,0.993,0.00,180.00,0.00,OPEN,0
557320.441,0,0,1,1.000,1.000,0.993,0.00,180.00,0.00,OPEN,0
557320.452,0,0,1,1.000,1.000,0.995,0.00,180.00,0.00,OPEN,0
557320.463,0,0,1,1.000,1.000,0.995,0.00,180.00,0.00,OPEN,0
557320.474,0,0,1,1.000,1.000,0.995,0.00,180.00,0.00,OPEN,0
557320.484,0,0,1,1.000,1.000,0.995,0.00,180.00,0.00,OPEN,0
557320.495,0,0,1,1.000,1.000,0.995,0.00,180.00,0.00,OPEN,0
557320.506,0,0,1,1.000,1.000,0.993,0.00,180.00,0.00,OPEN,0
557320.516,0,0,1,1.000,1.000,0.993,0.00,180.00,0.00,OPEN,0
557320.527,0,0,1,1.000,1.000,0.993,0.00,180.00,0.00,OPEN,0
557320.538,0,0,1,1.000,1.000,0.993,0.00,180.00,0.00,OPEN,0
557320.549,0,0,1,1.000,1.000,0.987,0.00,180.00,0.00,OPEN,0
557320.560,0,0,1,1.000,1.000,0.987,0.00,180.00,0.00,OPEN,0
557320.570,0,0,1,1.000,1.000,0.987,0.00,180.00,0.00,OPEN,0
557320.581,0,0,1,1.000,1.000,0.987,0.00,180.00,0.00,OPEN,0
557320.598,0,0,1,1.000,1.000,0.980,0.00,180.00,0.00,OPEN,0
557320.609,0,0,1,1.000,1.000,0.980,0.00,180.00,0.00,OPEN,0
557320.620,0,0,1,1.000,1.000,0.980,0.00,180.00,0.00,OPEN,0
557320.631,0,0,1,1.000,1.000,0.980,0.00,180.00,0.00,OPEN,0
557320.642,0,0,1,1.000,1.000,0.980,0.00,180.00,0.00,OPEN,0
557320.652,0,0,1,1.000,1.000,0.992,0.00,180.00,0.00,OPEN,0
557320.663,0,0,1,1.000,1.000,0.992,0.00,180.00,0.00,OPEN,0
557320.674,0,0,1,1.000,1.000,0.992,0.00,180.00,0.00,OPEN,0
557320.685,0,0,1,1.000,1.000,0.992,0.00,180.00,0.00,OPEN,0
557320.695,0,0,1,1.000,1.000,0.992,0.00,180.00,0.00,OPEN,0
557320.706,0,0,1,1.000,1.000,0.990,0.00,180.00,0.00,OPEN,0
557320.717,0,0,1,1.000,1.000,0.990,0.00,180.00,0.00,OPEN,0
557320.728,0,0,1,1.000,1.000,0.990,0.00,180.00,0.00,OPEN,0
557320.739,0,0,1,1.000,1.000,0.990,0.00,180.00,0.00,OPEN,0
557320.750,0,0,1,1.000,1.000,0.986,0.00,180.00,0.00,OPEN,0
557320.760,0,0,1,1.000,1.000,0.986,0.00,180.00,0.00,OPEN,0
557320.771,0,0,1,1.000,1.000,0.986,0.00,180.00,0.00,OPEN,0
557320.782,0,0,1,1.000,1.000,0.986,0.00,180.00,0.00,OPEN,0
557320.793,0,0,1,1.000,1.000,0.986,0.00,180.00,0.00,OPEN,0
557320.803,0,0,1,1.000,1.000,0.947,0.00,180.00,0.00,OPEN,0
557320.814,0,0,1,1.000,1.000,0.947,0.00,180.00,0.00,OPEN,0
557320.825,0,0,1,1.000,1.000,0.947,0.00,180.00,0.00,OPEN,0
557320.836,0,0,1,1.000,1.000,0.947,0.00,180.00,0.00,OPEN,0
557320.847,0,0,1,1.000,1.000,0.947,0.00,180.00,0.00,OPEN,0
557320.858,0,0,1,1.000,1.000,0.573,0.00,180.00,0.00,OPEN,0
557320.869,0,0,1,1.000,1.000,0.573,0.00,180.00,0.00,OPEN,0
557320.879,0,0,1,1.000,1.000,0.573,0.00,180.00,0.00,OPEN,0
557320.890,0,0,1,1.000,1.000,0.573,0.00,180.00,0.00,OPEN,0
557320.901,0,0,1,1.000,1.000,0.558,0.00,180.00,0.00,OPEN,0
557320.912,0,0,1,1.000,1.000,0.558,0.00,180.00,0.00,OPEN,0
557320.923,0,0,1,1.000,1.000,0.558,0.00,180.00,0.00,OPEN,0
557320.933,0,0,1,1.000,1.000,0.558,0.00,180.00,0.00,OPEN,0
557320.944,0,0,1,1.000,1.000,0.558,0.00,180.00,0.00,OPEN,0
557320.955,0,0,1,1.000,1.000,0.526,0.00,180.00,0.00,OPEN,0
557320.966,0,0,1,1.000,1.000,0.526,0.00,180.00,0.00,OPEN,0
557320.976,0,0,1,1.000,1.000,0.526,0.00,180.00,0.00,OPEN,0
557320.987,0,0,1,1.000,1.000,0.526,0.00,180.00,0.00,OPEN,0
557320.997,0,0,1,1.000,1.000,0.526,0.00,180.00,0.00,OPEN,0
557321.008,0,0,1,1.000,1.000,0.538,0.00,180.00,0.00,OPEN,0
557321.019,0,0,1,1.000,1.000,0.538,0.00,180.00,0.00,OPEN,0
557321.030,0,0,1,1.000,1.000,0.538,0.00,180.00,0.00,OPEN,0
557321.042,0,0,1,1.000,1.000,0.538,0.00,180.00,0.00,OPEN,0
557321.053,0,0,1,1.000,1.000,0.552,0.00,180.00,0.00,OPEN,0
557321.064,0,0,1,1.000,1.000,0.552,0.00,180.00,0.00,OPEN,0
557321.075,0,0,1,1.000,1.000,0.552,0.00,180.00,0.00,OPEN,0
557321.086,0,0,1,1.000,1.000,0.552,0.00,180.00,0.00,OPEN,0
557321.096,0,0,1,1.000,1.000,0.552,0.00,180.00,0.00,OPEN,0
557321.107,0,0,1,1.000,1.000,0.845,0.00,180.00,0.00,OPEN,0
557321.118,0,0,1,1.000,1.000,0.845,0.00,180.00,0.00,OPEN,0
557321.129,0,0,1,1.000,1.000,0.845,0.00,180.00,0.00,OPEN,0
557321.140,0,0,1,1.000,1.000,0.845,0.00,180.00,0.00,OPEN,0
557321.151,0,0,1,1.000,1.000,0.923,0.00,180.00,0.00,OPEN,0
557321.161,0,0,1,1.000,1.000,0.923,0.00,180.00,0.00,OPEN,0
557321.172,0,0,1,1.000,1.000,0.923,0.00,180.00,0.00,OPEN,0
557321.183,0,0,1,1.000,1.000,0.923,0.00,180.00,0.00,OPEN,0
557321.194,0,0,1,1.000,1.000,0.923,0.00,180.00,0.00,OPEN,0
557321.205,0,0,1,1.000,1.000,0.957,0.00,180.00,0.00,OPEN,0
557321.216,0,0,1,1.000,1.000,0.957,0.00,180.00,0.00,OPEN,0
557321.228,0,0,1,1.000,1.000,0.957,0.00,180.00,0.00,OPEN,0
557321.238,0,0,1,1.000,1.000,0.957,0.00,180.00,0.00,OPEN,0
557321.249,0,0,1,1.000,1.000,0.960,0.00,180.00,0.00,OPEN,0
557321.260,0,0,1,1.000,1.000,0.960,0.00,180.00,0.00,OPEN,0
557321.271,0,0,1,1.000,1.000,0.960,0.00,180.00,0.00,OPEN,0
557321.281,0,0,1,1.000,1.000,0.960,0.00,180.00,0.00,OPEN,0
557321.293,0,0,1,1.000,1.000,0.960,0.00,180.00,0.00,OPEN,0
557321.303,0,0,1,1.000,1.000,0.938,0.00,180.00,0.00,OPEN,0
557321.314,0,0,1,1.000,1.000,0.938,0.00,180.00,0.00,OPEN,0
557321.326,0,0,1,1.000,1.000,0.938,0.00,180.00,0.00,OPEN,0
557321.336,0,0,1,1.000,1.000,0.938,0.00,180.00,0.00,OPEN,0
557321.347,0,0,1,1.000,1.000,0.938,0.00,180.00,0.00,OPEN,0
557321.358,0,0,1,1.000,1.000,0.924,0.00,180.00,0.00,OPEN,0
557321.370,0,0,1,1.000,1.000,0.924,0.00,180.00,0.00,OPEN,0
557321.380,0,0,1,1.000,1.000,0.924,0.00,180.00,0.00,OPEN,0
557321.391,0,0,1,1.000,1.000,0.924,0.00,180.00,0.00,OPEN,0
557321.402,0,0,1,1.000,1.000,0.876,0.00,180.00,0.00,OPEN,0
557321.414,0,0,1,1.000,1.000,0.876,0.00,180.00,0.00,OPEN,0
557321.426,0,0,1,1.000,1.000,0.876,0.00,180.00,0.00,OPEN,0
557321.436,0,0,1,1.000,1.000,0.876,0.00,180.00,0.00,OPEN,0
557321.447,0,0,1,1.000,1.000,0.876,0.00,180.00,0.00,OPEN,0
557321.458,0,0,1,1.000,1.000,0.880,0.00,180.00,0.00,OPEN,0
557321.469,0,0,1,1.000,1.000,0.880,0.00,180.00,0.00,OPEN,0
557321.480,0,0,1,1.000,1.000,0.880,0.00,180.00,0.00,OPEN,0
557321.491,0,0,1,1.000,1.000,0.880,0.00,180.00,0.00,OPEN,0
557321.503,0,0,1,1.000,1.000,0.894,0.00,180.00,0.00,OPEN,0
557321.514,0,0,1,1.000,1.000,0.894,0.00,180.00,0.00,OPEN,0
557321.525,0,0,1,1.000,1.000,0.894,0.00,180.00,0.00,OPEN,0
557321.536,0,0,1,1.000,1.000,0.894,0.00,180.00,0.00,OPEN,0
557321.546,0,0,1,1.000,1.000,0.894,0.00,180.00,0.00,OPEN,0
557321.558,0,0,1,1.000,1.000,0.924,0.00,180.00,0.00,OPEN,0
557321.569,0,0,1,1.000,1.000,0.924,0.00,180.00,0.00,OPEN,0
557321.580,0,0,1,1.000,1.000,0.924,0.00,180.00,0.00,OPEN,0
557321.591,0,0,1,1.000,1.000,0.924,0.00,180.00,0.00,OPEN,0
557321.601,0,0,1,1.000,1.000,0.936,0.00,180.00,0.00,OPEN,0
557321.613,0,0,1,1.000,1.000,0.936,0.00,180.00,0.00,OPEN,0
557321.623,0,0,1,1.000,1.000,0.936,0.00,180.00,0.00,OPEN,0
557321.634,0,0,1,1.000,1.000,0.936,0.00,180.00,0.00,OPEN,0
557321.644,0,0,1,1.000,1.000,0.936,0.00,180.00,0.00,OPEN,0
557321.655,0,0,1,1.000,1.000,0.976,0.00,180.00,0.00,OPEN,0
557321.666,0,0,1,1.000,1.000,0.976,0.00,180.00,0.00,OPEN,0
557321.677,0,0,1,1.000,1.000,0.976,0.00,180.00,0.00,OPEN,0
557321.687,0,0,1,1.000,1.000,0.976,0.00,180.00,0.00,OPEN,0
557321.698,0,0,1,1.000,1.000,0.982,0.00,180.00,0.00,OPEN,0
557321.709,0,0,1,1.000,1.000,0.982,0.00,180.00,0.00,OPEN,0
557321.720,0,0,1,1.000,1.000,0.982,0.00,180.00,0.00,OPEN,0
557321.731,0,0,1,1.000,1.000,0.982,0.00,180.00,0.00,OPEN,0
557321.741,0,0,1,1.000,1.000,0.982,0.00,180.00,0.00,OPEN,0
557321.752,0,0,1,1.000,1.000,0.984,0.00,180.00,0.00,OPEN,0
557321.763,0,0,1,1.000,1.000,0.984,0.00,180.00,0.00,OPEN,0
557321.774,0,0,1,1.000,1.000,0.984,0.00,180.00,0.00,OPEN,0
557321.786,0,0,1,1.000,1.000,0.984,0.00,180.00,0.00,OPEN,0
557321.796,0,0,1,1.000,1.000,0.984,0.00,180.00,0.00,OPEN,0
557321.807,0,0,1,1.000,1.000,0.991,0.00,180.00,0.00,OPEN,0
557321.818,0,0,1,1.000,1.000,0.991,0.00,180.00,0.00,OPEN,0
557321.828,0,0,1,1.000,1.000,0.991,0.00,180.00,0.00,OPEN,0
557321.839,0,0,1,1.000,1.000,0.991,0.00,180.00,0.00,OPEN,0
557321.850,0,0,1,1.000,1.000,0.993,0.00,180.00,0.00,OPEN,0
557321.861,0,0,1,1.000,1.000,0.993,0.00,180.00,0.00,OPEN,0
557321.872,0,0,1,1.000,1.000,0.993,0.00,180.00,0.00,OPEN,0
557321.883,0,0,1,1.000,1.000,0.993,0.00,180.00,0.00,OPEN,0
557321.893,0,0,1,1.000,1.000,0.993,0.00,180.00,0.00,OPEN,0
557321.904,0,0,1,1.000,1.000,0.991,0.00,180.00,0.00,OPEN,0
557321.915,0,0,1,1.000,1.000,0.991,0.00,180.00,0.00,OPEN,0
557321.927,0,0,1,1.000,1.000,0.991,0.00,180.00,0.00,OPEN,0
557321.938,0,0,1,1.000,1.000,0.991,0.00,180.00,0.00,OPEN,0
557321.949,0,0,1,1.000,1.000,0.994,0.00,180.00,0.00,OPEN,0
557321.960,0,0,1,1.000,1.000,0.994,0.00,180.00,0.00,OPEN,0
557321.971,0,0,1,1.000,1.000,0.994,0.00,180.00,0.00,OPEN,0
557321.982,0,0,1,1.000,1.000,0.994,0.00,180.00,0.00,OPEN,0
557321.992,0,0,1,1.000,1.000,0.994,0.00,180.00,0.00,OPEN,0
557322.003,0,0,1,1.000,1.000,0.996,0.00,180.00,0.00,OPEN,0
557322.014,0,0,1,1.000,1.000,0.996,0.00,180.00,0.00,OPEN,0
557322.025,0,0,1,1.000,1.000,0.996,0.00,180.00,0.00,OPEN,0
557322.037,0,0,1,1.000,1.000,0.996,0.00,180.00,0.00,OPEN,0
557322.047,0,0,1,1.000,1.000,0.996,0.00,180.00,0.00,OPEN,0
557322.058,0,0,1,1.000,1.000,0.996,0.00,180.00,0.00,OPEN,0
557322.068,0,0,1,1.000,1.000,0.996,0.00,180.00,0.00,OPEN,0
557322.079,0,0,1,1.000,1.000,0.996,0.00,180.00,0.00,OPEN,0
557322.090,0,0,1,1.000,1.000,0.996,0.00,180.00,0.00,OPEN,0
557322.100,0,0,1,1.000,1.000,0.996,0.00,180.00,0.00,OPEN,0
557322.111,0,0,1,1.000,1.000,0.996,0.00,180.00,0.00,OPEN,0
557322.122,0,0,1,1.000,1.000,0.996,0.00,180.00,0.00,OPEN,0
557322.133,0,0,1,1.000,1.000,0.996,0.00,180.00,0.00,OPEN,0
557322.144,0,0,1,1.000,1.000,0.996,0.00,180.00,0.00,OPEN,0
557322.155,0,0,1,1.000,1.000,0.997,0.00,180.00,0.00,OPEN,0
557322.166,0,0,1,1.000,1.000,0.997,0.00,180.00,0.00,OPEN,0
557322.177,0,0,1,1.000,1.000,0.997,0.00,180.00,0.00,OPEN,0
557322.188,0,0,1,1.000,1.000,0.997,0.00,180.00,0.00,OPEN,0
557322.198,0,0,1,1.000,1.000,0.992,0.00,180.00,0.00,OPEN,0
557322.209,0,0,1,1.000,1.000,0.992,0.00,180.00,0.00,OPEN,0
557322.220,0,0,1,1.000,1.000,0.992,0.00,180.00,0.00,OPEN,0
557322.232,0,0,1,1.000,1.000,0.992,0.00,180.00,0.00,OPEN,0
557322.243,0,0,1,1.000,1.000,0.992,0.00,180.00,0.00,OPEN,0
557322.255,0,0,1,1.000,1.000,0.905,0.00,180.00,0.00,OPEN,0
557322.266,0,0,1,1.000,1.000,0.905,0.00,180.00,0.00,OPEN,0
557322.277,0,0,1,1.000,1.000,0.905,0.00,180.00,0.00,OPEN,0
557322.287,0,0,1,1.000,1.000,0.905,0.00,180.00,0.00,OPEN,0
557322.298,0,0,1,1.000,1.000,0.789,0.00,180.00,0.00,OPEN,0
557322.309,0,0,1,1.000,1.000,0.789,0.00,180.00,0.00,OPEN,0
557322.319,0,0,1,1.000,1.000,0.789,0.00,180.00,0.00,OPEN,0
557322.330,0,0,1,1.000,1.000,0.789,0.00,180.00,0.00,OPEN,0
557322.341,0,0,1,1.000,1.000,0.789,0.00,180.00,0.00,OPEN,0
557322.352,0,0,1,1.000,1.000,0.629,0.00,180.00,0.00,OPEN,0
557322.363,0,0,1,1.000,1.000,0.629,0.00,180.00,0.00,OPEN,0
557322.374,0,0,1,1.000,1.000,0.629,0.00,180.00,0.00,OPEN,0
557322.384,0,0,1,1.000,1.000,0.629,0.00,180.00,0.00,OPEN,0
557322.395,0,0,1,1.000,1.000,0.629,0.00,180.00,0.00,OPEN,0
557322.406,0,0,1,1.000,1.000,0.653,0.00,180.00,0.00,OPEN,0
557322.417,0,0,1,1.000,1.000,0.653,0.00,180.00,0.00,OPEN,0
557322.428,0,0,1,1.000,1.000,0.653,0.00,180.00,0.00,OPEN,0
557322.439,0,0,1,1.000,1.000,0.653,0.00,180.00,0.00,OPEN,0
557322.449,0,0,1,1.000,1.000,0.679,0.00,180.00,0.00,OPEN,0
557322.460,0,0,1,1.000,1.000,0.679,0.00,180.00,0.00,OPEN,0
557322.471,0,0,1,1.000,1.000,0.679,0.00,180.00,0.00,OPEN,0
557322.481,0,0,1,1.000,1.000,0.679,0.00,180.00,0.00,OPEN,0
557322.493,0,0,1,1.000,1.000,0.679,0.00,180.00,0.00,OPEN,0
557322.504,0,0,1,1.000,1.000,0.557,0.00,180.00,0.00,OPEN,0
557322.516,0,0,1,1.000,1.000,0.557,0.00,180.00,0.00,OPEN,0
557322.528,0,0,1,1.000,1.000,0.557,0.00,180.00,0.00,OPEN,0
557322.539,0,0,1,1.000,1.000,0.557,0.00,180.00,0.00,OPEN,0
557322.551,0,0,1,1.000,1.000,0.544,0.00,180.00,0.00,OPEN,0
557322.562,0,0,1,1.000,1.000,0.544,0.00,180.00,0.00,OPEN,0
557322.573,0,0,1,1.000,1.000,0.544,0.00,180.00,0.00,OPEN,0
557322.583,0,0,1,1.000,1.000,0.544,0.00,180.00,0.00,OPEN,0
557322.594,0,0,1,1.000,1.000,0.544,0.00,180.00,0.00,OPEN,0
557322.605,0,0,1,1.000,1.000,0.520,0.00,180.00,0.00,OPEN,0
557322.616,0,0,1,1.000,1.000,0.520,0.00,180.00,0.00,OPEN,0
557322.628,0,0,1,1.000,1.000,0.520,0.00,180.00,0.00,OPEN,0
557322.639,0,0,1,1.000,1.000,0.520,0.00,180.00,0.00,OPEN,0
557322.650,0,0,1,1.000,1.000,0.542,0.00,180.00,0.00,OPEN,0
557322.661,0,0,1,1.000,1.000,0.542,0.00,180.00,0.00,OPEN,0
557322.671,0,0,1,1.000,1.000,0.542,0.00,180.00,0.00,OPEN,0
557322.682,0,0,1,1.000,1.000,0.542,0.00,180.00,0.00,OPEN,0
557322.693,0,0,1,1.000,1.000,0.542,0.00,180.00,0.00,OPEN,0
557322.704,0,0,1,1.000,1.000,0.722,0.00,180.00,0.00,OPEN,0
557322.715,0,0,1,1.000,1.000,0.722,0.00,180.00,0.00,OPEN,0
557322.726,0,0,1,1.000,1.000,0.722,0.00,180.00,0.00,OPEN,0
557322.737,0,0,1,1.000,1.000,0.722,0.00,180.00,0.00,OPEN,0
557322.748,0,0,1,1.000,1.000,0.734,0.00,180.00,0.00,OPEN,0
557322.758,0,0,1,1.000,1.000,0.734,0.00,180.00,0.00,OPEN,0
557322.769,0,0,1,1.000,1.000,0.734,0.00,180.00,0.00,OPEN,0
557322.780,0,0,1,1.000,1.000,0.734,0.00,180.00,0.00,OPEN,0
557322.790,0,0,1,1.000,1.000,0.734,0.00,180.00,0.00,OPEN,0
557322.801,0,0,1,1.000,1.000,0.816,0.00,180.00,0.00,OPEN,0
557322.812,0,0,1,1.000,1.000,0.816,0.00,180.00,0.00,OPEN,0
557322.823,0,0,1,1.000,1.000,0.816,0.00,180.00,0.00,OPEN,0
557322.833,0,0,1,1.000,1.000,0.816,0.00,180.00,0.00,OPEN,0
557322.844,0,0,1,1.000,1.000,0.816,0.00,180.00,0.00,OPEN,0
557322.856,0,0,1,1.000,1.000,0.864,0.00,180.00,0.00,OPEN,0
557322.867,0,0,1,1.000,1.000,0.864,0.00,180.00,0.00,OPEN,0
557322.877,0,0,1,1.000,1.000,0.864,0.00,180.00,0.00,OPEN,0
557322.888,0,0,1,1.000,1.000,0.864,0.00,180.00,0.00,OPEN,0
557322.899,0,0,1,1.000,1.000,0.877,0.00,180.00,0.00,OPEN,0
557322.910,0,0,1,1.000,1.000,0.877,0.00,180.00,0.00,OPEN,0
557322.921,0,0,1,1.000,1.000,0.877,0.00,180.00,0.00,OPEN,0
557322.932,0,0,1,1.000,1.000,0.877,0.00,180.00,0.00,OPEN,0
557322.942,0,0,1,1.000,1.000,0.877,0.00,180.00,0.00,OPEN,0
557322.953,0,0,1,1.000,1.000,0.816,0.00,180.00,0.00,OPEN,0
557322.964,0,0,1,1.000,1.000,0.816,0.00,180.00,0.00,OPEN,0
557322.975,0,0,1,1.000,1.000,0.816,0.00,180.00,0.00,OPEN,0
557322.986,0,0,1,1.000,1.000,0.816,0.00,180.00,0.00,OPEN,0
557322.997,0,0,1,1.000,1.000,0.816,0.00,180.00,0.00,OPEN,0
557323.007,0,0,1,1.000,1.000,0.797,0.00,180.00,0.00,OPEN,0
557323.018,0,0,1,1.000,1.000,0.797,0.00,180.00,0.00,OPEN,0
557323.029,0,0,1,1.000,1.000,0.797,0.00,180.00,0.00,OPEN,0
557323.040,0,0,1,1.000,1.000,0.797,0.00,180.00,0.00,OPEN,0
557323.050,0,0,1,1.000,1.000,0.678,0.00,180.00,0.00,OPEN,0
557323.061,0,0,1,1.000,1.000,0.678,0.00,180.00,0.00,OPEN,0
557323.072,0,0,1,1.000,1.000,0.678,0.00,180.00,0.00,OPEN,0
557323.083,0,0,1,1.000,1.000,0.678,0.00,180.00,0.00,OPEN,0
557323.094,0,0,1,1.000,1.000,0.678,0.00,180.00,0.00,OPEN,0
557323.104,0,0,1,1.000,1.000,0.640,0.00,180.00,0.00,OPEN,0
557323.115,0,0,1,1.000,1.000,0.640,0.00,180.00,0.00,OPEN,0
557323.126,0,0,1,1.000,1.000,0.640,0.00,180.00,0.00,OPEN,0
557323.137,0,0,1,1.000,1.000,0.640,0.00,180.00,0.00,OPEN,0
557323.148,0,0,1,1.000,1.000,0.753,0.00,180.00,0.00,OPEN,0
557323.159,0,0,1,1.000,1.000,0.753,0.00,180.00,0.00,OPEN,0
557323.170,0,0,1,1.000,1.000,0.753,0.00,180.00,0.00,OPEN,0
557323.181,0,0,1,1.000,1.000,0.753,0.00,180.00,0.00,OPEN,0
557323.191,0,0,1,1.000,1.000,0.753,0.00,180.00,0.00,OPEN,0
557323.202,0,0,1,1.000,1.000,0.572,0.00,180.00,0.00,OPEN,0
557323.213,0,0,1,1.000,1.000,0.572,0.00,180.00,0.00,OPEN,0
557323.224,0,0,1,1.000,1.000,0.572,0.00,180.00,0.00,OPEN,0
557323.235,0,0,1,1.000,1.000,0.572,0.00,180.00,0.00,OPEN,0
557323.246,0,0,1,1.000,1.000,0.572,0.00,180.00,0.00,OPEN,0
557323.257,0,0,1,1.000,1.000,0.506,0.00,180.00,0.00,OPEN,0
557323.269,0,0,1,1.000,1.000,0.506,0.00,180.00,0.00,OPEN,0
557323.280,0,0,1,1.000,1.000,0.506,0.00,180.00,0.00,OPEN,0
557323.290,0,0,1,1.000,1.000,0.506,0.00,180.00,0.00,OPEN,0
557323.301,0,0,1,1.000,1.000,0.506,0.00,180.00,0.00,OPEN,0
557323.312,0,0,1,1.000,1.000,0.506,0.00,180.00,0.00,OPEN,0
557323.323,0,0,1,1.000,1.000,0.506,0.00,180.00,0.00,OPEN,0
557323.334,0,0,1,1.000,1.000,0.506,0.00,180.00,0.00,OPEN,0
557323.344,0,0,1,1.000,1.000,0.506,0.00,180.00,0.00,OPEN,0
557323.355,0,0,1,1.000,1.000,0.521,0.00,180.00,0.00,OPEN,0
557323.366,0,0,1,1.000,1.000,0.521,0.00,180.00,0.00,OPEN,0
557323.377,0,0,1,1.000,1.000,0.521,0.00,180.00,0.00,OPEN,0
557323.388,0,0,1,1.000,1.000,0.521,0.00,180.00,0.00,OPEN,0
557323.399,0,0,1,1.000,1.000,0.512,0.00,180.00,0.00,OPEN,0
557323.410,0,0,1,1.000,1.000,0.512,0.00,180.00,0.00,OPEN,0
557323.420,0,0,1,1.000,1.000,0.512,0.00,180.00,0.00,OPEN,0
557323.431,0,0,1,1.000,1.000,0.512,0.00,180.00,0.00,OPEN,0
557323.442,0,0,1,1.000,1.000,0.512,0.00,180.00,0.00,OPEN,0
557323.453,0,0,1,1.000,1.000,0.578,0.00,180.00,0.00,OPEN,0
557323.464,0,0,1,1.000,1.000,0.578,0.00,180.00,0.00,OPEN,0
557323.474,0,0,1,1.000,1.000,0.578,0.00,180.00,0.00,OPEN,0
557323.486,0,0,1,1.000,1.000,0.578,0.00,180.00,0.00,OPEN,0
557323.496,0,0,1,1.000,1.000,0.578,0.00,180.00,0.00,OPEN,0
557323.507,0,0,1,1.000,1.000,0.524,0.00,180.00,0.00,OPEN,0
557323.518,0,0,1,1.000,1.000,0.524,0.00,180.00,0.00,OPEN,0
557323.529,0,0,1,1.000,1.000,0.524,0.00,180.00,0.00,OPEN,0
557323.540,0,0,1,1.000,1.000,0.524,0.00,180.00,0.00,OPEN,0
557323.551,0,0,1,1.000,1.000,0.695,0.00,180.00,0.00,OPEN,0
557323.562,0,0,1,1.000,1.000,0.695,0.00,180.00,0.00,OPEN,0
557323.572,0,0,1,1.000,1.000,0.695,0.00,180.00,0.00,OPEN,0
557323.583,0,0,1,1.000,1.000,0.695,0.00,180.00,0.00,OPEN,0
557323.599,0,0,1,1.000,1.000,0.664,0.00,180.00,0.00,OPEN,0
557323.612,0,0,1,1.000,1.000,0.664,0.00,180.00,0.00,OPEN,0
557323.625,0,0,1,1.000,1.000,0.664,0.00,180.00,0.00,OPEN,0
557323.635,0,0,1,1.000,1.000,0.664,0.00,180.00,0.00,OPEN,0
557323.646,0,0,1,1.000,1.000,0.664,0.00,180.00,0.00,OPEN,0
557323.657,0,0,1,1.000,1.000,0.529,0.00,180.00,0.00,OPEN,0
557323.668,0,0,1,1.000,1.000,0.529,0.00,180.00,0.00,OPEN,0
557323.679,0,0,1,1.000,1.000,0.529,0.00,180.00,0.00,OPEN,0
557323.690,0,0,1,1.000,1.000,0.529,0.00,180.00,0.00,OPEN,0
557323.701,0,0,1,1.000,1.000,0.666,0.00,180.00,0.00,OPEN,0
557323.712,0,0,1,1.000,1.000,0.666,0.00,180.00,0.00,OPEN,0
557323.723,0,0,1,1.000,1.000,0.666,0.00,180.00,0.00,OPEN,0
557323.734,0,0,1,1.000,1.000,0.666,0.00,180.00,0.00,OPEN,0
557323.745,0,0,1,1.000,1.000,0.666,0.00,180.00,0.00,OPEN,0
557323.756,0,0,1,1.000,1.000,0.675,0.00,180.00,0.00,OPEN,0
557323.767,0,0,1,1.000,1.000,0.675,0.00,180.00,0.00,OPEN,0
557323.778,0,0,1,1.000,1.000,0.675,0.00,180.00,0.00,OPEN,0
557323.789,0,0,1,1.000,1.000,0.675,0.00,180.00,0.00,OPEN,0
557323.799,0,0,1,1.000,1.000,0.761,0.00,180.00,0.00,OPEN,0
557323.810,0,0,1,1.000,1.000,0.761,0.00,180.00,0.00,OPEN,0
557323.822,0,0,1,1.000,1.000,0.761,0.00,180.00,0.00,OPEN,0
557323.832,0,0,1,1.000,1.000,0.761,0.00,180.00,0.00,OPEN,0
557323.843,0,0,1,1.000,1.000,0.761,0.00,180.00,0.00,OPEN,0
557323.854,0,0,1,1.000,1.000,0.835,0.00,180.00,0.00,OPEN,0
557323.865,0,0,1,1.000,1.000,0.835,0.00,180.00,0.00,OPEN,0
557323.875,0,0,1,1.000,1.000,0.835,0.00,180.00,0.00,OPEN,0
557323.886,0,0,1,1.000,1.000,0.835,0.00,180.00,0.00,OPEN,0
557323.897,0,0,1,1.000,1.000,0.835,0.00,180.00,0.00,OPEN,0
557323.907,0,0,1,1.000,1.000,0.763,0.00,180.00,0.00,OPEN,0
557323.918,0,0,1,1.000,1.000,0.763,0.00,180.00,0.00,OPEN,0
557323.929,0,0,1,1.000,1.000,0.763,0.00,180.00,0.00,OPEN,0
557323.939,0,0,1,1.000,1.000,0.763,0.00,180.00,0.00,OPEN,0
557323.950,0,0,1,1.000,1.000,0.608,0.00,180.00,0.00,OPEN,0
557323.961,0,0,1,1.000,1.000,0.608,0.00,180.00,0.00,OPEN,0
557323.972,0,0,1,1.000,1.000,0.608,0.00,180.00,0.00,OPEN,0
557323.983,0,0,1,1.000,1.000,0.608,0.00,180.00,0.00,OPEN,0
557323.993,0,0,1,1.000,1.000,0.608,0.00,180.00,0.00,OPEN,0
557324.004,0,0,1,1.000,1.000,0.556,0.00,180.00,0.00,OPEN,0
557324.016,0,0,1,1.000,1.000,0.556,0.00,180.00,0.00,OPEN,0
557324.027,0,0,1,1.000,1.000,0.556,0.00,180.00,0.00,OPEN,0
557324.037,0,0,1,1.000,1.000,0.556,0.00,180.00,0.00,OPEN,0
557324.048,0,0,1,1.000,1.000,0.669,0.00,180.00,0.00,OPEN,0
557324.060,0,0,1,1.000,1.000,0.669,0.00,180.00,0.00,OPEN,0
557324.071,0,0,1,1.000,1.000,0.669,0.00,180.00,0.00,OPEN,0
557324.081,0,0,1,1.000,1.000,0.669,0.00,180.00,0.00,OPEN,0
557324.091,0,0,1,1.000,1.000,0.669,0.00,180.00,0.00,OPEN,0
557324.102,0,0,1,1.000,0.698,1.000,0.00,180.00,0.00,OPEN,0
557324.113,0,0,1,1.000,0.698,1.000,0.00,180.00,0.00,OPEN,0
557324.124,0,0,1,1.000,0.698,1.000,0.00,180.00,0.00,OPEN,0
557324.135,0,0,1,1.000,0.698,1.000,0.00,180.00,0.00,OPEN,0
557324.145,0,0,1,1.000,0.698,1.000,0.00,180.00,0.00,OPEN,0
557324.156,0,0,1,1.000,1.000,1.000,0.00,180.00,0.00,OPEN,0
557324.167,0,0,1,1.000,1.000,1.000,0.00,180.00,0.00,OPEN,0
557324.178,0,0,1,1.000,1.000,1.000,0.00,180.00,0.00,OPEN,0
557324.188,0,0,1,1.000,1.000,1.000,0.00,180.00,0.00,OPEN,0
557324.200,0,0,1,1.000,1.000,1.000,0.00,180.00,0.00,OPEN,0
557324.211,0,0,1,1.000,1.000,1.000,0.00,180.00,0.00,OPEN,0
557324.221,0,0,1,1.000,1.000,1.000,0.00,180.00,0.00,OPEN,0
557324.232,0,0,1,1.000,1.000,1.000,0.00,180.00,0.00,OPEN,0
557324.243,0,0,1,1.000,1.000,1.000,0.00,180.00,0.00,OPEN,0
557324.254,0,0,1,1.000,1.000,1.000,0.00,180.00,0.00,OPEN,0
557324.264,0,0,1,1.000,1.000,1.000,0.00,180.00,0.00,OPEN,0
557324.275,0,0,1,1.000,1.000,1.000,0.00,180.00,0.00,OPEN,0
557324.286,0,0,1,1.000,1.000,1.000,0.00,180.00,0.00,OPEN,0
557324.297,0,0,1,1.000,1.000,1.000,0.00,180.00,0.00,OPEN,0
557324.310,0,0,1,1.000,1.000,1.000,0.00,180.00,0.00,OPEN,0
557324.321,0,0,1,1.000,1.000,1.000,0.00,180.00,0.00,OPEN,0
557324.332,0,0,1,1.000,1.000,1.000,0.00,180.00,0.00,OPEN,0
557324.342,0,0,1,1.000,1.000,1.000,0.00,180.00,0.00,OPEN,0
557324.353,0,0,1,1.000,1.000,1.000,0.00,180.00,0.00,OPEN,0
557324.363,0,0,1,1.000,1.000,1.000,0.00,180.00,0.00,OPEN,0
557324.374,0,0,1,1.000,1.000,1.000,0.00,180.00,0.00,OPEN,0
557324.385,0,0,1,1.000,1.000,1.000,0.00,180.00,0.00,OPEN,0
557324.395,0,0,1,1.000,1.000,1.000,0.00,180.00,0.00,OPEN,0
557324.406,0,0,1,1.000,1.000,1.000,0.00,180.00,0.00,OPEN,0
557324.416,0,0,1,1.000,1.000,1.000,0.00,180.00,0.00,OPEN,0
557324.427,0,0,1,1.000,1.000,1.000,0.00,180.00,0.00,OPEN,0
557324.438,0,0,1,1.000,1.000,1.000,0.00,180.00,0.00,OPEN,0
557324.448,0,0,1,1.000,1.000,1.000,0.00,180.00,0.00,OPEN,0
557324.459,0,0,1,1.000,1.000,1.000,0.00,180.00,0.00,OPEN,0
557324.470,0,0,1,1.000,1.000,1.000,0.00,180.00,0.00,OPEN,0
557326.574,0,0,0,1.000,1.000,1.000,-90.00,180.00,0.00,OPEN,0
557326.585,0,0,0,1.000,1.000,1.000,-90.00,180.00,0.00,OPEN,0
557326.595,0,0,0,1.000,1.000,1.000,-90.00,180.00,0.00,OPEN,0
557326.606,0,0,0,1.000,1.000,1.000,-90.00,180.00,0.00,OPEN,0
557326.617,0,0,0,1.000,1.000,1.000,-90.00,180.00,0.00,OPEN,0
557326.628,0,0,0,1.000,1.000,1.000,-90.00,180.00,0.00,OPEN,0
557326.639,0,0,0,1.000,1.000,1.000,-90.00,180.00,0.00,OPEN,0
557326.650,0,0,0,1.000,1.000,1.000,-90.00,180.00,0.00,OPEN,0
557326.661,0,0,0,1.000,1.000,1.000,-90.00,180.00,0.00,OPEN,0
557326.672,0,0,0,0.984,1.000,1.000,-90.00,180.00,0.00,OPEN,0
557326.683,0,0,0,0.984,1.000,1.000,-90.00,180.00,0.00,OPEN,0
557326.694,0,0,0,0.984,1.000,1.000,-90.00,180.00,0.00,OPEN,0
557326.705,0,0,0,0.984,1.000,1.000,-90.00,180.00,0.00,OPEN,0
557326.716,0,0,0,0.986,1.000,1.000,-90.00,180.00,0.00,OPEN,0
557326.727,0,0,0,0.986,1.000,1.000,-90.00,180.00,0.00,OPEN,0
557326.738,0,0,0,0.986,1.000,1.000,-90.00,180.00,0.00,OPEN,0
557326.749,0,0,0,0.986,1.000,1.000,-90.00,180.00,0.00,OPEN,0
557326.760,0,0,0,0.986,1.000,1.000,-90.00,180.00,0.00,OPEN,0
557326.772,0,0,0,0.972,1.000,1.000,-90.00,180.00,0.00,OPEN,0
557326.782,0,0,0,0.972,1.000,1.000,-90.00,180.00,0.00,OPEN,0
557326.793,0,0,0,0.972,1.000,1.000,-90.00,180.00,0.00,OPEN,0
557326.805,0,0,0,0.972,1.000,1.000,-90.00,180.00,0.00,OPEN,0
557326.816,0,1,1,0.970,1.000,1.000,0.00,90.00,0.00,OPEN,1
557326.828,0,1,1,0.970,1.000,1.000,0.00,90.00,0.00,OPEN,0
557326.839,0,1,1,0.970,1.000,1.000,0.00,90.00,0.00,OPEN,0
557326.850,0,1,1,0.970,1.000,1.000,0.00,90.00,0.00,OPEN,0
557326.860,0,1,1,0.970,1.000,1.000,0.00,90.00,0.00,OPEN,0
557326.871,0,1,1,0.966,1.000,1.000,0.00,90.00,0.00,OPEN,0
557326.882,0,1,1,0.966,1.000,1.000,0.00,90.00,0.00,OPEN,0
557326.893,0,1,1,0.966,1.000,1.000,0.00,90.00,0.00,OPEN,0
557326.906,0,1,1,0.966,1.000,1.000,0.00,90.00,0.00,OPEN,0
557326.916,0,1,1,0.958,1.000,1.000,0.00,90.00,0.00,OPEN,0
557326.927,0,1,1,0.958,1.000,1.000,0.00,90.00,0.00,OPEN,0
557326.939,0,1,1,0.958,1.000,1.000,0.00,90.00,0.00,OPEN,0
557326.950,0,1,1,0.958,1.000,1.000,0.00,90.00,0.00,OPEN,0
557326.961,0,1,1,0.958,1.000,1.000,0.00,90.00,0.00,OPEN,0
557326.972,0,1,1,0.927,1.000,1.000,0.00,90.00,0.00,OPEN,0
557326.983,0,1,1,0.927,1.000,1.000,0.00,90.00,0.00,OPEN,0
557326.993,0,1,1,0.927,1.000,1.000,0.00,90.00,0.00,OPEN,0
557327.004,0,1,1,0.927,1.000,1.000,0.00,90.00,0.00,OPEN,0
557327.015,0,1,1,0.992,1.000,1.000,0.00,90.00,0.00,OPEN,0
557327.026,0,1,1,0.992,1.000,1.000,0.00,90.00,0.00,OPEN,0
557327.036,0,1,1,0.992,1.000,1.000,0.00,90.00,0.00,OPEN,0
557327.047,0,1,1,0.992,1.000,1.000,0.00,90.00,0.00,OPEN,0
557327.058,0,1,1,0.992,1.000,1.000,0.00,90.00,0.00,OPEN,0
557327.069,0,1,1,0.999,1.000,1.000,0.00,90.00,0.00,OPEN,0
557327.080,0,1,1,0.999,1.000,1.000,0.00,90.00,0.00,OPEN,0
557327.090,0,1,1,0.999,1.000,1.000,0.00,90.00,0.00,OPEN,0
557327.101,0,1,1,0.999,1.000,1.000,0.00,90.00,0.00,OPEN,0
557327.112,0,1,1,0.999,1.000,1.000,0.00,90.00,0.00,OPEN,0
557327.123,0,1,1,1.000,1.000,1.000,0.00,90.00,0.00,OPEN,0
557327.133,0,1,1,1.000,1.000,1.000,0.00,90.00,0.00,OPEN,0
557327.144,0,1,1,1.000,1.000,1.000,0.00,90.00,0.00,OPEN,0
557327.155,0,1,1,1.000,1.000,1.000,0.00,90.00,0.00,OPEN,0
557327.166,0,1,1,1.000,0.746,0.957,0.00,90.00,0.00,OPEN,0
557327.177,0,1,1,1.000,0.746,0.957,0.00,90.00,0.00,OPEN,0
557327.188,0,1,1,1.000,0.746,0.957,0.00,90.00,0.00,OPEN,0
557327.198,0,1,1,1.000,0.746,0.957,0.00,90.00,0.00,OPEN,0
557327.209,0,1,1,1.000,0.746,0.957,0.00,90.00,0.00,OPEN,0
557327.220,0,1,1,1.000,0.786,0.983,0.00,90.00,0.00,OPEN,0
557327.231,0,1,1,1.000,0.786,0.983,0.00,90.00,0.00,OPEN,0
557327.243,0,1,1,1.000,0.786,0.983,0.00,90.00,0.00,OPEN,0
557327.255,0,1,1,1.000,0.786,0.983,0.00,90.00,0.00,OPEN,0
557327.267,0,1,1,1.000,0.965,0.997,0.00,90.00,0.00,OPEN,0
557327.278,0,1,1,1.000,0.965,0.997,0.00,90.00,0.00,OPEN,0
557327.289,0,1,1,1.000,0.965,0.997,0.00,90.00,0.00,OPEN,0
557327.300,0,1,1,1.000,0.965,0.997,0.00,90.00,0.00,OPEN,0
557327.311,0,1,1,1.000,0.965,0.997,0.00,90.00,0.00,OPEN,0
557327.322,0,1,1,1.000,0.989,0.544,0.00,90.00,0.00,OPEN,0
557327.333,0,1,1,1.000,0.989,0.544,0.00,90.00,0.00,OPEN,0
557327.344,0,1,1,1.000,0.989,0.544,0.00,90.00,0.00,OPEN,0
557327.355,0,1,1,1.000,0.989,0.544,0.00,90.00,0.00,OPEN,0
557327.366,0,1,1,1.000,0.926,0.768,0.00,90.00,0.00,OPEN,0
557327.377,0,1,1,1.000,0.926,0.768,0.00,90.00,0.00,OPEN,0
557327.388,0,1,1,1.000,0.926,0.768,0.00,90.00,0.00,OPEN,0
557327.398,0,1,1,1.000,0.926,0.768,0.00,90.00,0.00,OPEN,0
557327.409,0,1,1,1.000,0.926,0.768,0.00,90.00,0.00,OPEN,0
557327.420,2,1,1,1.000,1.000,1.000,0.00,90.00,-4.50,OPEN,1
557327.433,2,1,1,1.000,1.000,1.000,0.00,90.00,-4.50,OPEN,0
557327.445,2,1,1,1.000,1.000,1.000,0.00,90.00,-4.50,OPEN,0
557327.456,2,1,1,1.000,1.000,1.000,0.00,90.00,-4.50,OPEN,0
557327.466,2,1,1,1.000,1.000,1.000,0.00,90.00,-4.50,OPEN,0
557327.477,2,1,1,1.000,1.000,1.000,0.00,90.00,-4.50,OPEN,0
557327.489,2,1,1,1.000,1.000,1.000,0.00,90.00,-4.50,OPEN,0
557327.499,2,1,1,1.000,1.000,1.000,0.00,90.00,-4.50,OPEN,0
557327.510,2,1,1,1.000,1.000,1.000,0.00,90.00,-4.50,OPEN,0
557327.521,2,1,1,1.000,1.000,1.000,0.00,90.00,-9.00,OPEN,1
557327.534,2,1,1,1.000,1.000,1.000,0.00,90.00,-9.00,OPEN,0
557327.545,2,1,1,1.000,1.000,1.000,0.00,90.00,-9.00,OPEN,0
557327.555,2,1,1,1.000,1.000,1.000,0.00,90.00,-9.00,OPEN,0
557327.566,2,1,1,1.000,0.998,0.991,0.00,90.00,-9.00,OPEN,0
557327.577,2,1,1,1.000,0.998,0.991,0.00,90.00,-9.00,OPEN,0
557327.589,2,1,1,1.000,0.998,0.991,0.00,90.00,-9.00,OPEN,0
557327.599,2,1,1,1.000,0.998,0.991,0.00,90.00,-9.00,OPEN,0
557327.610,2,1,1,1.000,0.998,0.991,0.00,90.00,-9.00,OPEN,0
557327.621,2,1,1,1.000,0.999,0.965,0.00,90.00,-9.00,OPEN,0
557327.631,2,1,1,1.000,0.999,0.965,0.00,90.00,-13.50,OPEN,1
557327.644,2,1,1,1.000,0.999,0.965,0.00,90.00,-13.50,OPEN,0
557327.655,2,1,1,1.000,0.999,0.965,0.00,90.00,-13.50,OPEN,0
557327.666,2,1,1,1.000,0.999,0.957,0.00,90.00,-13.50,OPEN,0
557327.677,2,1,1,1.000,0.999,0.957,0.00,90.00,-13.50,OPEN,0
557327.688,2,1,1,1.000,0.999,0.957,0.00,90.00,-13.50,OPEN,0
557327.699,2,1,1,1.000,0.999,0.957,0.00,90.00,-13.50,OPEN,0
557327.710,2,1,1,1.000,0.999,0.957,0.00,90.00,-13.50,OPEN,0
557327.721,2,1,1,1.000,0.993,0.898,0.00,90.00,-13.50,OPEN,0
557327.732,2,1,1,1.000,0.993,0.898,0.00,90.00,-18.00,OPEN,1
557327.745,2,1,1,1.000,0.993,0.898,0.00,90.00,-18.00,OPEN,0
557327.756,2,1,1,1.000,0.993,0.898,0.00,90.00,-18.00,OPEN,0
557327.767,2,1,1,1.000,0.524,0.686,0.00,90.00,-18.00,OPEN,0
557327.777,2,1,1,1.000,0.524,0.686,0.00,90.00,-18.00,OPEN,0
557327.789,2,1,1,1.000,0.524,0.686,0.00,90.00,-18.00,OPEN,0
557327.799,2,1,1,1.000,0.524,0.686,0.00,90.00,-18.00,OPEN,0
557327.810,2,1,1,1.000,0.524,0.686,0.00,90.00,-18.00,OPEN,0
557327.821,2,1,1,1.000,1.000,1.000,0.00,90.00,-18.00,OPEN,0
557327.832,2,1,1,1.000,1.000,1.000,0.00,90.00,-22.50,OPEN,1
557327.844,2,1,1,1.000,1.000,1.000,0.00,90.00,-22.50,OPEN,0
557327.855,2,1,1,1.000,1.000,1.000,0.00,90.00,-22.50,OPEN,0
557327.866,2,1,1,1.000,1.000,1.000,0.00,90.00,-22.50,OPEN,0
557327.876,2,1,1,1.000,1.000,1.000,0.00,90.00,-22.50,OPEN,0
557327.887,2,1,1,1.000,1.000,1.000,0.00,90.00,-22.50,OPEN,0
557327.897,2,1,1,1.000,1.000,1.000,0.00,90.00,-22.50,OPEN,0
557327.909,2,1,1,1.000,1.000,1.000,0.00,90.00,-22.50,OPEN,0
557327.920,2,1,1,1.000,1.000,1.000,0.00,90.00,-22.50,OPEN,0
557327.931,2,1,1,1.000,1.000,1.000,0.00,90.00,-22.50,OPEN,0
557327.942,2,1,1,1.000,1.000,1.000,0.00,90.00,-27.00,OPEN,1
557327.955,2,1,1,1.000,1.000,1.000,0.00,90.00,-27.00,OPEN,0
557327.966,2,1,1,1.000,1.000,1.000,0.00,90.00,-27.00,OPEN,0
557327.977,2,1,1,1.000,1.000,1.000,0.00,90.00,-27.00,OPEN,0
557327.988,2,1,1,1.000,1.000,1.000,0.00,90.00,-27.00,OPEN,0
557327.999,2,1,1,1.000,1.000,1.000,0.00,90.00,-27.00,OPEN,0
557328.010,2,1,1,1.000,1.000,1.000,0.00,90.00,-27.00,OPEN,0
557328.021,2,1,1,1.000,1.000,1.000,0.00,90.00,-27.00,OPEN,0
557328.031,2,1,1,1.000,1.000,1.000,0.00,90.00,-27.00,OPEN,0
557328.043,2,1,1,1.000,1.000,1.000,0.00,90.00,-31.50,OPEN,1
557328.055,2,1,1,1.000,1.000,1.000,0.00,90.00,-31.50,OPEN,0
557328.066,2,1,1,1.000,1.000,1.000,0.00,90.00,-31.50,OPEN,0
557328.077,2,1,1,1.000,1.000,1.000,0.00,90.00,-31.50,OPEN,0
557328.088,2,1,1,1.000,1.000,1.000,0.00,90.00,-31.50,OPEN,0
557328.099,2,1,1,1.000,1.000,1.000,0.00,90.00,-31.50,OPEN,0
557328.109,2,1,1,1.000,1.000,1.000,0.00,90.00,-31.50,OPEN,0
557328.120,2,1,1,1.000,1.000,1.000,0.00,90.00,-31.50,OPEN,0
557328.131,2,1,1,1.000,1.000,1.000,0.00,90.00,-31.50,OPEN,0
557328.143,2,1,1,1.000,1.000,1.000,0.00,90.00,-31.50,OPEN,0
557328.153,2,1,1,1.000,1.000,1.000,0.00,90.00,-36.00,OPEN,1
557328.166,2,1,0,1.000,1.000,1.000,-90.00,90.00,-36.00,OPEN,0
557328.177,2,1,0,1.000,1.000,1.000,-90.00,90.00,-36.00,OPEN,0
557328.189,2,1,0,1.000,1.000,1.000,-90.00,90.00,-36.00,OPEN,0
557328.200,2,1,0,1.000,1.000,1.000,-90.00,90.00,-36.00,OPEN,0
557328.211,2,1,0,1.000,1.000,1.000,-90.00,90.00,-36.00,OPEN,0
557328.222,2,0,0,1.000,1.000,1.000,-90.00,180.00,-36.00,OPEN,0
557328.232,2,0,0,1.000,1.000,1.000,-90.00,180.00,-36.00,OPEN,0
557328.243,2,0,0,1.000,1.000,1.000,-90.00,180.00,-36.00,OPEN,0
557328.254,2,0,0,1.000,1.000,1.000,-90.00,180.00,-40.50,OPEN,1
557328.266,2,0,0,1.000,1.000,1.000,-90.00,180.00,-40.50,OPEN,0
557328.277,2,0,0,1.000,1.000,1.000,-90.00,180.00,-40.50,OPEN,0
557328.288,2,0,0,1.000,1.000,1.000,-90.00,180.00,-40.50,OPEN,0
557328.299,2,0,0,1.000,1.000,1.000,-90.00,180.00,-40.50,OPEN,0
557328.310,2,0,0,1.000,1.000,1.000,-90.00,180.00,-40.50,OPEN,0
557328.321,2,0,0,1.000,1.000,1.000,-90.00,180.00,-40.50,OPEN,0
557328.332,2,0,0,1.000,1.000,1.000,-90.00,180.00,-40.50,OPEN,0
557328.342,2,0,0,1.000,1.000,1.000,-90.00,180.00,-40.50,OPEN,0
557328.353,2,0,0,1.000,1.000,1.000,-90.00,180.00,-40.50,OPEN,0
557328.364,2,0,0,1.000,1.000,1.000,-90.00,180.00,-45.00,OPEN,1
557328.377,2,0,0,1.000,1.000,1.000,-90.00,180.00,-45.00,OPEN,0
557328.388,2,0,0,1.000,1.000,1.000,-90.00,180.00,-45.00,OPEN,0
557328.399,2,0,0,1.000,1.000,1.000,-90.00,180.00,-45.00,OPEN,0
557328.410,2,0,0,1.000,1.000,1.000,-90.00,180.00,-45.00,OPEN,0
557328.421,2,0,0,1.000,1.000,1.000,-90.00,180.00,-45.00,OPEN,0
557328.431,2,0,0,1.000,1.000,1.000,-90.00,180.00,-45.00,OPEN,0
557328.442,2,0,0,1.000,1.000,1.000,-90.00,180.00,-45.00,OPEN,0
557328.453,2,0,0,1.000,1.000,1.000,-90.00,180.00,-45.00,OPEN,0
557328.464,2,0,0,1.000,1.000,1.000,-90.00,180.00,-45.00,OPEN,0
557328.475,2,0,0,1.000,1.000,1.000,-90.00,180.00,-45.00,OPEN,0
557328.486,2,0,0,1.000,1.000,1.000,-90.00,180.00,-45.00,OPEN,0
557328.496,2,0,0,1.000,1.000,1.000,-90.00,180.00,-45.00,OPEN,0
557328.508,2,0,0,1.000,1.000,1.000,-90.00,180.00,-45.00,OPEN,0
557328.519,2,0,0,1.000,1.000,1.000,-90.00,180.00,-45.00,OPEN,0
557328.529,2,0,0,1.000,1.000,1.000,-90.00,180.00,-45.00,OPEN,0
557328.540,2,0,0,1.000,1.000,1.000,-90.00,180.00,-45.00,OPEN,0
557328.551,2,0,0,1.000,1.000,1.000,-90.00,180.00,-45.00,OPEN,0
557328.562,2,0,0,1.000,1.000,1.000,-90.00,180.00,-45.00,OPEN,0
557328.572,2,0,0,1.000,1.000,1.000,-90.00,180.00,-45.00,OPEN,0
557328.583,2,0,0,1.000,1.000,1.000,-90.00,180.00,-45.00,OPEN,0
557328.594,2,0,0,1.000,1.000,1.000,-90.00,180.00,-45.00,OPEN,0
557328.605,2,0,0,1.000,1.000,1.000,-90.00,180.00,-45.00,OPEN,0
557328.616,2,0,0,1.000,1.000,1.000,-90.00,180.00,-45.00,OPEN,0
557328.627,2,0,0,1.000,1.000,1.000,-90.00,180.00,-45.00,OPEN,0
557328.638,2,0,0,1.000,1.000,1.000,-90.00,180.00,-45.00,OPEN,0
557328.649,2,0,0,1.000,1.000,1.000,-90.00,180.00,-45.00,OPEN,0
557328.660,2,0,0,1.000,1.000,1.000,-90.00,180.00,-45.00,OPEN,0
557328.670,2,0,0,1.000,1.000,1.000,-90.00,180.00,-45.00,OPEN,0
557328.681,2,0,0,1.000,1.000,1.000,-90.00,180.00,-45.00,OPEN,0
557328.692,2,0,0,1.000,1.000,1.000,-90.00,180.00,-45.00,OPEN,0
557328.703,2,0,0,1.000,1.000,1.000,-90.00,180.00,-45.00,OPEN,0
557328.714,2,0,0,1.000,1.000,1.000,-90.00,180.00,-45.00,OPEN,0
557328.725,2,0,0,1.000,1.000,1.000,-90.00,180.00,-45.00,OPEN,0
557328.735,2,0,0,1.000,1.000,1.000,-90.00,180.00,-45.00,OPEN,0
557328.746,2,0,0,1.000,1.000,1.000,-90.00,180.00,-45.00,OPEN,0
557328.757,2,0,0,1.000,1.000,1.000,-90.00,180.00,-45.00,OPEN,0
557328.768,2,0,0,1.000,1.000,1.000,-90.00,180.00,-45.00,OPEN,0
557328.779,2,0,0,1.000,1.000,1.000,-90.00,180.00,-45.00,OPEN,0
557328.789,2,0,0,1.000,1.000,1.000,-90.00,180.00,-45.00,OPEN,0
557328.800,2,0,0,1.000,1.000,1.000,-90.00,180.00,-45.00,OPEN,0
557328.811,2,0,0,1.000,1.000,1.000,-90.00,180.00,-45.00,OPEN,0
557328.821,2,0,0,1.000,1.000,1.000,-90.00,180.00,-45.00,OPEN,0
557328.832,2,0,0,1.000,1.000,1.000,-90.00,180.00,-45.00,OPEN,0
557328.843,2,0,0,1.000,1.000,1.000,-90.00,180.00,-45.00,OPEN,0
557328.854,2,0,0,1.000,1.000,1.000,-90.00,180.00,-45.00,OPEN,0
557328.865,2,0,0,1.000,1.000,1.000,-90.00,180.00,-45.00,OPEN,0
557328.875,2,0,0,1.000,1.000,1.000,-90.00,180.00,-45.00,OPEN,0
557328.887,2,0,0,1.000,1.000,1.000,-90.00,180.00,-45.00,OPEN,0
557328.897,2,0,0,1.000,1.000,1.000,-90.00,180.00,-45.00,OPEN,0
557328.909,2,0,0,1.000,1.000,1.000,-90.00,180.00,-45.00,OPEN,0
557328.920,2,0,0,1.000,1.000,1.000,-90.00,180.00,-45.00,OPEN,0
557328.931,2,0,0,1.000,1.000,1.000,-90.00,180.00,-45.00,OPEN,0
557328.941,2,0,0,1.000,1.000,1.000,-90.00,180.00,-45.00,OPEN,0
557328.952,2,0,0,1.000,1.000,1.000,-90.00,180.00,-45.00,OPEN,0
557328.963,2,0,0,1.000,1.000,1.000,-90.00,180.00,-45.00,OPEN,0
557328.973,2,0,0,1.000,1.000,1.000,-90.00,180.00,-45.00,OPEN,0
557328.984,2,0,0,1.000,1.000,1.000,-90.00,180.00,-45.00,OPEN,0
557328.995,2,0,0,1.000,1.000,1.000,-90.00,180.00,-45.00,OPEN,0
557329.005,2,0,0,1.000,1.000,1.000,-90.00,180.00,-45.00,OPEN,0
557329.016,2,0,0,1.000,1.000,1.000,-90.00,180.00,-45.00,OPEN,0
557329.027,2,0,0,1.000,1.000,1.000,-90.00,180.00,-45.00,OPEN,0
557329.038,2,0,0,1.000,1.000,1.000,-90.00,180.00,-45.00,OPEN,0
557329.049,2,0,0,1.000,1.000,1.000,-90.00,180.00,-45.00,OPEN,0
557329.060,2,0,0,1.000,1.000,1.000,-90.00,180.00,-45.00,OPEN,0
557329.071,2,0,0,1.000,1.000,1.000,-90.00,180.00,-45.00,OPEN,0
557329.081,2,0,0,1.000,1.000,1.000,-90.00,180.00,-45.00,OPEN,0
557329.092,2,0,0,1.000,1.000,1.000,-90.00,180.00,-45.00,OPEN,0
557329.103,2,0,0,1.000,1.000,1.000,-90.00,180.00,-45.00,OPEN,0
557329.113,2,0,0,1.000,1.000,1.000,-90.00,180.00,-45.00,OPEN,0
557329.124,2,0,0,1.000,1.000,1.000,-90.00,180.00,-45.00,OPEN,0
557329.135,2,0,0,1.000,1.000,1.000,-90.00,180.00,-45.00,OPEN,0
557329.146,2,0,0,1.000,1.000,1.000,-90.00,180.00,-45.00,OPEN,0
557329.156,2,0,0,1.000,1.000,1.000,-90.00,180.00,-45.00,OPEN,0
557329.167,2,0,0,1.000,1.000,1.000,-90.00,180.00,-45.00,OPEN,0
557329.178,2,0,0,1.000,1.000,1.000,-90.00,180.00,-45.00,OPEN,0
557329.188,2,0,0,1.000,1.000,1.000,-90.00,180.00,-45.00,OPEN,0
557329.199,2,0,0,1.000,1.000,1.000,-90.00,180.00,-45.00,OPEN,0
557329.210,2,0,0,1.000,1.000,1.000,-90.00,180.00,-45.00,OPEN,0
557329.221,2,0,0,1.000,1.000,1.000,-90.00,180.00,-45.00,OPEN,0
557329.231,2,0,0,1.000,1.000,1.000,-90.00,180.00,-45.00,OPEN,0
557329.242,2,0,0,1.000,1.000,1.000,-90.00,180.00,-45.00,OPEN,0
557329.253,2,0,0,1.000,1.000,1.000,-90.00,180.00,-45.00,OPEN,0
557329.264,2,0,0,1.000,1.000,1.000,-90.00,180.00,-45.00,OPEN,0
557329.275,2,0,0,1.000,1.000,1.000,-90.00,180.00,-45.00,OPEN,0
557329.286,2,0,0,1.000,1.000,1.000,-90.00,180.00,-45.00,OPEN,0
557329.297,2,0,0,1.000,1.000,1.000,-90.00,180.00,-45.00,OPEN,0
557329.308,2,0,0,1.000,1.000,1.000,-90.00,180.00,-45.00,OPEN,0
557329.319,2,0,0,1.000,1.000,1.000,-90.00,180.00,-45.00,OPEN,0
557329.330,2,0,0,1.000,1.000,1.000,-90.00,180.00,-45.00,OPEN,0
557329.341,2,0,0,1.000,1.000,1.000,-90.00,180.00,-45.00,OPEN,0
557329.352,2,0,0,1.000,1.000,1.000,-90.00,180.00,-45.00,OPEN,0
557329.363,2,0,0,1.000,1.000,1.000,-90.00,180.00,-45.00,OPEN,0
557329.374,2,0,0,1.000,1.000,1.000,-90.00,180.00,-45.00,OPEN,0
557329.385,2,0,0,1.000,1.000,1.000,-90.00,180.00,-45.00,OPEN,0
557329.396,2,0,0,1.000,1.000,1.000,-90.00,180.00,-45.00,OPEN,0
557329.407,2,0,0,1.000,1.000,1.000,-90.00,180.00,-45.00,OPEN,0
557329.418,2,0,0,1.000,1.000,1.000,-90.00,180.00,-45.00,OPEN,0
557329.429,2,0,0,1.000,1.000,1.000,-90.00,180.00,-45.00,OPEN,0
557329.439,2,0,0,1.000,1.000,1.000,-90.00,180.00,-45.00,OPEN,0
557329.450,2,0,0,1.000,1.000,1.000,-90.00,180.00,-45.00,OPEN,0
557329.461,2,0,0,1.000,1.000,1.000,-90.00,180.00,-45.00,OPEN,0
557329.471,2,0,0,1.000,1.000,1.000,-90.00,180.00,-45.00,OPEN,0
557329.482,2,0,0,1.000,1.000,1.000,-90.00,180.00,-45.00,OPEN,0
557329.493,2,0,0,1.000,1.000,1.000,-90.00,180.00,-45.00,OPEN,0
557329.504,2,0,0,1.000,1.000,1.000,-90.00,180.00,-45.00,OPEN,0
557329.515,2,0,0,1.000,1.000,1.000,-90.00,180.00,-45.00,OPEN,0
557329.526,2,0,0,1.000,1.000,1.000,-90.00,180.00,-45.00,OPEN,0
557329.537,2,0,0,1.000,1.000,1.000,-90.00,180.00,-45.00,OPEN,0
557329.547,2,0,0,1.000,1.000,1.000,-90.00,180.00,-45.00,OPEN,0
557329.559,2,0,0,1.000,1.000,1.000,-90.00,180.00,-45.00,OPEN,0
557329.570,2,0,0,1.000,1.000,1.000,-90.00,180.00,-45.00,OPEN,0
557329.581,2,0,0,1.000,1.000,1.000,-90.00,180.00,-45.00,OPEN,0
557329.593,2,0,0,1.000,1.000,1.000,-90.00,180.00,-45.00,OPEN,0
557329.604,2,0,0,1.000,1.000,1.000,-90.00,180.00,-45.00,OPEN,0
557329.614,2,0,0,1.000,1.000,1.000,-90.00,180.00,-45.00,OPEN,0
557329.625,2,0,0,1.000,1.000,1.000,-90.00,180.00,-45.00,OPEN,0
557329.636,2,0,0,1.000,1.000,1.000,-90.00,180.00,-45.00,OPEN,0
557329.647,2,0,0,1.000,1.000,1.000,-90.00,180.00,-45.00,OPEN,0
557329.658,2,0,0,1.000,1.000,1.000,-90.00,180.00,-45.00,OPEN,0
557329.669,2,0,0,1.000,1.000,1.000,-90.00,180.00,-45.00,OPEN,0
557329.680,2,0,0,1.000,1.000,1.000,-90.00,180.00,-45.00,OPEN,0
557329.691,2,0,0,1.000,1.000,1.000,-90.00,180.00,-45.00,OPEN,0
557329.702,2,0,0,1.000,1.000,1.000,-90.00,180.00,-45.00,OPEN,0
557329.713,2,0,0,1.000,1.000,1.000,-90.00,180.00,-45.00,OPEN,0
557329.724,2,0,0,1.000,1.000,1.000,-90.00,180.00,-45.00,OPEN,0
557329.734,2,0,0,1.000,1.000,1.000,-90.00,180.00,-45.00,OPEN,0
557329.745,2,0,0,1.000,1.000,1.000,-90.00,180.00,-45.00,OPEN,0
557329.756,2,0,0,1.000,1.000,1.000,-90.00,180.00,-45.00,OPEN,0
557329.767,2,0,0,1.000,1.000,1.000,-90.00,180.00,-45.00,OPEN,0
557329.778,2,0,0,1.000,1.000,1.000,-90.00,180.00,-45.00,OPEN,0
557329.789,2,0,0,1.000,1.000,1.000,-90.00,180.00,-45.00,OPEN,0
557329.799,2,0,0,1.000,1.000,1.000,-90.00,180.00,-45.00,OPEN,0
557329.811,2,0,0,1.000,1.000,1.000,-90.00,180.00,-45.00,OPEN,0
557329.822,2,0,0,1.000,1.000,1.000,-90.00,180.00,-45.00,OPEN,0
557329.833,2,0,0,1.000,1.000,1.000,-90.00,180.00,-45.00,OPEN,0
557329.844,2,0,0,1.000,1.000,1.000,-90.00,180.00,-45.00,OPEN,0
557329.855,2,0,0,1.000,1.000,1.000,-90.00,180.00,-45.00,OPEN,0
557329.866,2,0,0,1.000,1.000,1.000,-90.00,180.00,-45.00,OPEN,0
557329.877,2,0,0,1.000,1.000,1.000,-90.00,180.00,-45.00,OPEN,0
557329.888,2,0,0,1.000,1.000,1.000,-90.00,180.00,-45.00,OPEN,0
557329.899,2,0,0,1.000,1.000,1.000,-90.00,180.00,-45.00,OPEN,0
557329.909,2,0,0,1.000,1.000,1.000,-90.00,180.00,-45.00,OPEN,0
557329.920,2,0,0,1.000,1.000,1.000,-90.00,180.00,-45.00,OPEN,0
557329.931,2,0,0,1.000,1.000,1.000,-90.00,180.00,-45.00,OPEN,0
557329.942,2,0,0,1.000,1.000,1.000,-90.00,180.00,-45.00,OPEN,0
557329.953,2,0,0,1.000,1.000,1.000,-90.00,180.00,-45.00,OPEN,0
557329.964,2,0,0,1.000,1.000,1.000,-90.00,180.00,-45.00,OPEN,0
557329.975,2,0,0,1.000,1.000,1.000,-90.00,180.00,-45.00,OPEN,0
557329.987,2,0,0,1.000,1.000,1.000,-90.00,180.00,-45.00,OPEN,0
557329.998,2,0,0,1.000,1.000,1.000,-90.00,180.00,-45.00,OPEN,0
557330.008,2,0,0,1.000,1.000,1.000,-90.00,180.00,-45.00,OPEN,0
557330.020,2,0,0,1.000,1.000,1.000,-90.00,180.00,-45.00,OPEN,0
557330.031,2,0,0,1.000,1.000,1.000,-90.00,180.00,-45.00,OPEN,0
557330.041,2,0,0,1.000,1.000,1.000,-90.00,180.00,-45.00,OPEN,0
557330.052,2,0,0,1.000,1.000,1.000,-90.00,180.00,-45.00,OPEN,0
557330.063,2,0,0,1.000,1.000,1.000,-90.00,180.00,-45.00,OPEN,0
557330.074,2,0,0,1.000,1.000,1.000,-90.00,180.00,-45.00,OPEN,0
557330.085,2,0,0,1.000,1.000,1.000,-90.00,180.00,-45.00,OPEN,0
557330.096,2,0,0,1.000,1.000,1.000,-90.00,180.00,-45.00,OPEN,0
557330.107,2,0,0,1.000,1.000,1.000,-90.00,180.00,-45.00,OPEN,0
557330.118,2,0,0,1.000,1.000,1.000,-90.00,180.00,-45.00,OPEN,0
557330.128,2,0,0,1.000,1.000,1.000,-90.00,180.00,-45.00,OPEN,0
557330.140,2,0,0,1.000,1.000,1.000,-90.00,180.00,-45.00,OPEN,0
557330.150,2,0,0,1.000,1.000,1.000,-90.00,180.00,-45.00,OPEN,0
557330.161,2,0,0,1.000,1.000,1.000,-90.00,180.00,-45.00,OPEN,0
557330.172,2,0,0,1.000,1.000,1.000,-90.00,180.00,-45.00,OPEN,0
557330.183,2,0,0,1.000,1.000,1.000,-90.00,180.00,-45.00,OPEN,0
557330.194,2,0,0,1.000,1.000,1.000,-90.00,180.00,-45.00,OPEN,0
557330.205,2,0,0,1.000,1.000,1.000,-90.00,180.00,-45.00,OPEN,0
557330.216,2,0,0,1.000,1.000,1.000,-90.00,180.00,-45.00,OPEN,0
557330.226,2,0,0,1.000,1.000,1.000,-90.00,180.00,-45.00,OPEN,0
557330.238,2,0,0,1.000,1.000,1.000,-90.00,180.00,-45.00,OPEN,0
557330.248,2,0,0,1.000,1.000,1.000,-90.00,180.00,-45.00,OPEN,0
557330.259,2,0,0,1.000,1.000,1.000,-90.00,180.00,-45.00,OPEN,0
557330.270,2,0,0,1.000,1.000,1.000,-90.00,180.00,-45.00,OPEN,0
557330.281,2,0,0,1.000,1.000,1.000,-90.00,180.00,-45.00,OPEN,0
557330.292,2,0,0,1.000,1.000,1.000,-90.00,180.00,-45.00,OPEN,0
557330.303,2,0,0,1.000,1.000,1.000,-90.00,180.00,-45.00,OPEN,0
557330.314,2,0,0,1.000,1.000,1.000,-90.00,180.00,-45.00,OPEN,0
557330.325,2,0,0,1.000,1.000,1.000,-90.00,180.00,-45.00,OPEN,0
557330.335,2,0,0,1.000,1.000,1.000,-90.00,180.00,-45.00,OPEN,0
557330.346,2,0,0,1.000,1.000,1.000,-90.00,180.00,-45.00,OPEN,0
557330.358,2,0,0,1.000,1.000,1.000,-90.00,180.00,-45.00,OPEN,0
557330.369,2,0,0,1.000,1.000,1.000,-90.00,180.00,-45.00,OPEN,0
557330.379,2,0,0,1.000,1.000,1.000,-90.00,180.00,-45.00,OPEN,0
557330.390,2,0,0,1.000,1.000,1.000,-90.00,180.00,-45.00,OPEN,0
557330.401,2,0,0,1.000,1.000,1.000,-90.00,180.00,-45.00,OPEN,0
557330.412,2,0,0,1.000,1.000,1.000,-90.00,180.00,-45.00,OPEN,0
557330.422,2,0,0,1.000,1.000,1.000,-90.00,180.00,-45.00,OPEN,0
557330.433,2,0,0,1.000,1.000,1.000,-90.00,180.00,-45.00,OPEN,0
557330.444,2,0,0,1.000,1.000,1.000,-90.00,180.00,-45.00,OPEN,0
557330.456,2,0,0,1.000,1.000,1.000,-90.00,180.00,-45.00,OPEN,0
557330.467,2,0,0,1.000,1.000,1.000,-90.00,180.00,-45.00,OPEN,0
557330.478,2,0,0,1.000,1.000,1.000,-90.00,180.00,-45.00,OPEN,0
557330.489,2,0,0,1.000,1.000,1.000,-90.00,180.00,-45.00,OPEN,0
557330.499,2,0,0,1.000,1.000,1.000,-90.00,180.00,-45.00,OPEN,0
557330.511,2,0,0,1.000,1.000,1.000,-90.00,180.00,-45.00,OPEN,0
557330.522,2,0,0,1.000,1.000,1.000,-90.00,180.00,-45.00,OPEN,0
557330.532,2,0,0,1.000,1.000,1.000,-90.00,180.00,-45.00,OPEN,0
557330.543,2,0,0,1.000,1.000,1.000,-90.00,180.00,-45.00,OPEN,0
557330.554,2,0,0,1.000,1.000,1.000,-90.00,180.00,-45.00,OPEN,0
557330.565,2,0,0,1.000,1.000,1.000,-90.00,180.00,-45.00,OPEN,0
557330.576,2,0,0,1.000,1.000,1.000,-90.00,180.00,-45.00,OPEN,0
557330.587,2,0,0,1.000,1.000,1.000,-90.00,180.00,-45.00,OPEN,0
557330.598,2,0,0,1.000,1.000,1.000,-90.00,180.00,-45.00,OPEN,0
557330.609,2,0,0,1.000,1.000,1.000,-90.00,180.00,-45.00,OPEN,0
557330.620,2,0,0,1.000,1.000,1.000,-90.00,180.00,-45.00,OPEN,0
557330.630,2,0,0,1.000,1.000,1.000,-90.00,180.00,-45.00,OPEN,0
557330.641,2,0,0,1.000,1.000,1.000,-90.00,180.00,-45.00,OPEN,0
557330.652,2,0,0,1.000,1.000,1.000,-90.00,180.00,-45.00,OPEN,0
557330.663,2,0,0,1.000,1.000,1.000,-90.00,180.00,-45.00,OPEN,0
557330.674,2,0,0,1.000,1.000,1.000,-90.00,180.00,-45.00,OPEN,0
557330.701,2,0,0,1.000,1.000,1.000,-90.00,180.00,-45.00,OPEN,0
557330.728,2,0,0,1.000,1.000,1.000,-90.00,180.00,-45.00,OPEN,0
557330.749,2,0,0,1.000,1.000,1.000,-90.00,180.00,-45.00,OPEN,0
557330.764,2,0,0,1.000,1.000,1.000,-90.00,180.00,-45.00,OPEN,0
557330.778,2,0,0,1.000,1.000,1.000,-90.00,180.00,-45.00,OPEN,0
557330.799,2,0,0,1.000,1.000,1.000,-90.00,180.00,-45.00,OPEN,0
557330.810,2,0,0,1.000,1.000,1.000,-90.00,180.00,-45.00,OPEN,0
557330.821,2,0,0,1.000,1.000,1.000,-90.00,180.00,-45.00,OPEN,0
557330.832,2,0,0,1.000,1.000,1.000,-90.00,180.00,-45.00,OPEN,0
557330.842,2,0,0,1.000,1.000,1.000,-90.00,180.00,-45.00,OPEN,0
557330.853,2,0,0,1.000,1.000,1.000,-90.00,180.00,-45.00,OPEN,0
557330.864,2,0,0,1.000,1.000,1.000,-90.00,180.00,-45.00,OPEN,0
557330.874,2,0,0,1.000,1.000,1.000,-90.00,180.00,-45.00,OPEN,0
557330.885,2,0,0,1.000,1.000,1.000,-90.00,180.00,-45.00,OPEN,0
557330.896,2,0,0,1.000,1.000,1.000,-90.00,180.00,-45.00,OPEN,0
557330.907,2,0,0,1.000,1.000,1.000,-90.00,180.00,-45.00,OPEN,0
557330.918,2,0,0,1.000,1.000,1.000,-90.00,180.00,-45.00,OPEN,0
557330.929,2,0,0,1.000,1.000,1.000,-90.00,180.00,-45.00,OPEN,0
557330.940,2,0,0,1.000,1.000,1.000,-90.00,180.00,-45.00,OPEN,0
557330.951,2,0,0,1.000,1.000,1.000,-90.00,180.00,-45.00,OPEN,0
557330.961,2,0,0,1.000,1.000,1.000,-90.00,180.00,-45.00,OPEN,0
557330.973,2,0,0,1.000,1.000,1.000,-90.00,180.00,-45.00,OPEN,0
557330.984,2,0,0,1.000,1.000,1.000,-90.00,180.00,-45.00,OPEN,0
557330.995,2,0,0,1.000,1.000,1.000,-90.00,180.00,-45.00,OPEN,0
557331.006,2,0,0,1.000,1.000,1.000,-90.00,180.00,-45.00,OPEN,0
557331.017,2,0,0,1.000,1.000,1.000,-90.00,180.00,-45.00,OPEN,0
557331.028,2,0,0,1.000,1.000,1.000,-90.00,180.00,-45.00,OPEN,0
557331.039,2,0,0,1.000,1.000,1.000,-90.00,180.00,-45.00,OPEN,0
557331.050,2,0,0,1.000,1.000,1.000,-90.00,180.00,-45.00,OPEN,0
557331.061,2,0,0,1.000,1.000,1.000,-90.00,180.00,-45.00,OPEN,0
557331.072,2,0,0,1.000,1.000,1.000,-90.00,180.00,-45.00,OPEN,0
557331.083,2,0,0,1.000,1.000,1.000,-90.00,180.00,-45.00,OPEN,0
557331.094,2,0,0,1.000,1.000,1.000,-90.00,180.00,-45.00,OPEN,0
557331.106,2,0,0,1.000,1.000,1.000,-90.00,180.00,-45.00,OPEN,0
557331.116,2,0,0,1.000,1.000,1.000,-90.00,180.00,-45.00,OPEN,0
557331.128,2,0,0,1.000,1.000,1.000,-90.00,180.00,-45.00,OPEN,0
557331.138,2,0,0,1.000,1.000,1.000,-90.00,180.00,-45.00,OPEN,0
557331.149,2,0,0,1.000,1.000,1.000,-90.00,180.00,-45.00,OPEN,0
557331.160,2,0,0,1.000,1.000,1.000,-90.00,180.00,-45.00,OPEN,0
557331.171,2,0,0,1.000,1.000,1.000,-90.00,180.00,-45.00,OPEN,0
557331.182,2,0,0,1.000,1.000,1.000,-90.00,180.00,-45.00,OPEN,0
557331.193,2,0,0,1.000,1.000,1.000,-90.00,180.00,-45.00,OPEN,0
557331.203,2,0,0,1.000,1.000,1.000,-90.00,180.00,-45.00,OPEN,0
557331.214,2,0,0,1.000,1.000,1.000,-90.00,180.00,-45.00,OPEN,0
557331.226,2,0,0,1.000,1.000,1.000,-90.00,180.00,-45.00,OPEN,0
557331.236,2,0,0,1.000,1.000,1.000,-90.00,180.00,-45.00,OPEN,0
557331.247,2,0,0,1.000,1.000,1.000,-90.00,180.00,-45.00,OPEN,0
557331.258,2,0,0,1.000,1.000,1.000,-90.00,180.00,-45.00,OPEN,0
557331.270,2,0,0,1.000,1.000,1.000,-90.00,180.00,-45.00,OPEN,0
557331.281,2,0,0,1.000,1.000,1.000,-90.00,180.00,-45.00,OPEN,0
557331.291,2,0,0,1.000,1.000,1.000,-90.00,180.00,-45.00,OPEN,0
557331.304,2,0,0,1.000,1.000,1.000,-90.00,180.00,-45.00,OPEN,0
557331.315,2,0,0,1.000,1.000,1.000,-90.00,180.00,-45.00,OPEN,0
557331.326,2,0,0,1.000,1.000,1.000,-90.00,180.00,-45.00,OPEN,0
557331.337,2,0,0,1.000,1.000,1.000,-90.00,180.00,-45.00,OPEN,0
557331.347,2,0,0,1.000,1.000,1.000,-90.00,180.00,-45.00,OPEN,0
557331.358,2,0,0,1.000,1.000,1.000,-90.00,180.00,-45.00,OPEN,0
557331.370,2,0,0,1.000,1.000,1.000,-90.00,180.00,-45.00,OPEN,0
557331.381,2,0,0,1.000,1.000,1.000,-90.00,180.00,-45.00,OPEN,0
557331.392,2,0,0,1.000,1.000,1.000,-90.00,180.00,-45.00,OPEN,0
557331.403,2,0,0,1.000,1.000,1.000,-90.00,180.00,-45.00,OPEN,0
557331.414,2,0,0,1.000,1.000,1.000,-90.00,180.00,-45.00,OPEN,0
557331.424,2,0,0,1.000,1.000,1.000,-90.00,180.00,-45.00,OPEN,0
557331.436,2,0,0,1.000,1.000,1.000,-90.00,180.00,-45.00,OPEN,0
557331.448,2,0,0,1.000,1.000,1.000,-90.00,180.00,-45.00,OPEN,0
557331.459,2,0,0,1.000,1.000,1.000,-90.00,180.00,-45.00,OPEN,0
557331.470,2,0,0,1.000,1.000,1.000,-90.00,180.00,-45.00,OPEN,0
557331.480,2,0,0,1.000,1.000,1.000,-90.00,180.00,-45.00,OPEN,0
557331.491,2,0,0,1.000,1.000,1.000,-90.00,180.00,-45.00,OPEN,0
557331.503,2,0,0,1.000,1.000,1.000,-90.00,180.00,-45.00,OPEN,0
557331.513,2,0,0,1.000,1.000,1.000,-90.00,180.00,-45.00,OPEN,0
557331.524,2,0,0,1.000,1.000,1.000,-90.00,180.00,-45.00,OPEN,0
557331.536,2,0,0,1.000,1.000,1.000,-90.00,180.00,-45.00,OPEN,0
557331.547,2,0,0,1.000,1.000,1.000,-90.00,180.00,-45.00,OPEN,0
557331.558,2,0,0,1.000,1.000,1.000,-90.00,180.00,-45.00,OPEN,0
557331.569,2,0,0,1.000,1.000,1.000,-90.00,180.00,-45.00,OPEN,0
557331.580,2,0,0,1.000,1.000,1.000,-90.00,180.00,-45.00,OPEN,0
557331.592,2,0,0,1.000,1.000,1.000,-90.00,180.00,-45.00,OPEN,0
557331.603,2,0,0,1.000,1.000,1.000,-90.00,180.00,-45.00,OPEN,0
557331.614,2,0,0,1.000,1.000,1.000,-90.00,180.00,-45.00,OPEN,0
557331.625,2,0,0,1.000,1.000,1.000,-90.00,180.00,-45.00,OPEN,0
557331.637,2,0,0,1.000,1.000,1.000,-90.00,180.00,-45.00,OPEN,0
557331.648,2,0,0,1.000,1.000,1.000,-90.00,180.00,-45.00,OPEN,0
557331.660,2,0,0,1.000,1.000,1.000,-90.00,180.00,-45.00,OPEN,0
557331.671,2,0,0,1.000,1.000,1.000,-90.00,180.00,-45.00,OPEN,0
557331.682,2,0,0,1.000,1.000,1.000,-90.00,180.00,-45.00,OPEN,0
557331.692,2,0,0,1.000,1.000,1.000,-90.00,180.00,-45.00,OPEN,0
557331.704,2,0,0,1.000,1.000,1.000,-90.00,180.00,-45.00,OPEN,0
557331.714,2,0,0,1.000,1.000,1.000,-90.00,180.00,-45.00,OPEN,0
557331.725,2,0,0,1.000,1.000,1.000,-90.00,180.00,-45.00,OPEN,0
557331.736,2,0,0,1.000,1.000,1.000,-90.00,180.00,-45.00,OPEN,0
557331.747,2,0,0,1.000,1.000,1.000,-90.00,180.00,-45.00,OPEN,0
557331.758,2,0,0,1.000,1.000,1.000,-90.00,180.00,-45.00,OPEN,0
557331.769,2,0,0,1.000,1.000,1.000,-90.00,180.00,-45.00,OPEN,0
557331.780,2,0,0,1.000,1.000,1.000,-90.00,180.00,-45.00,OPEN,0
557331.790,2,0,0,1.000,1.000,1.000,-90.00,180.00,-45.00,OPEN,0
557331.801,2,0,0,1.000,1.000,1.000,-90.00,180.00,-45.00,OPEN,0
557331.811,2,0,0,1.000,1.000,1.000,-90.00,180.00,-45.00,OPEN,0
557331.822,2,0,0,1.000,1.000,1.000,-90.00,180.00,-45.00,OPEN,0
557331.833,2,0,0,1.000,1.000,1.000,-90.00,180.00,-45.00,OPEN,0
557331.844,2,0,0,1.000,1.000,1.000,-90.00,180.00,-45.00,OPEN,0
557331.855,2,0,0,1.000,1.000,1.000,-90.00,180.00,-45.00,OPEN,0
557331.865,2,0,0,1.000,1.000,1.000,-90.00,180.00,-45.00,OPEN,0
557331.876,2,0,0,1.000,1.000,1.000,-90.00,180.00,-45.00,OPEN,0
557331.887,2,0,0,1.000,1.000,1.000,-90.00,180.00,-45.00,OPEN,0
557331.898,2,0,0,1.000,1.000,1.000,-90.00,180.00,-45.00,OPEN,0
557331.909,2,0,0,1.000,1.000,1.000,-90.00,180.00,-45.00,OPEN,0
557331.921,2,0,0,1.000,1.000,1.000,-90.00,180.00,-45.00,OPEN,0
557331.932,2,0,0,1.000,1.000,1.000,-90.00,180.00,-45.00,OPEN,0
557331.943,2,0,0,1.000,1.000,1.000,-90.00,180.00,-45.00,OPEN,0
557331.954,2,0,0,1.000,1.000,1.000,-90.00,180.00,-45.00,OPEN,0
557331.965,2,0,0,1.000,1.000,1.000,-90.00,180.00,-45.00,OPEN,0
557331.976,2,0,0,1.000,1.000,1.000,-90.00,180.00,-45.00,OPEN,0
557331.987,2,0,0,1.000,1.000,1.000,-90.00,180.00,-45.00,OPEN,0
557331.998,2,0,0,1.000,1.000,1.000,-90.00,180.00,-45.00,OPEN,0
557332.009,2,0,0,1.000,1.000,1.000,-90.00,180.00,-45.00,OPEN,0
557332.020,2,0,0,1.000,1.000,1.000,-90.00,180.00,-45.00,OPEN,0
557332.031,2,0,0,1.000,1.000,1.000,-90.00,180.00,-45.00,OPEN,0
557332.042,2,0,0,1.000,1.000,1.000,-90.00,180.00,-45.00,OPEN,0
557332.053,2,0,0,1.000,1.000,1.000,-90.00,180.00,-45.00,OPEN,0
557332.064,2,0,0,1.000,1.000,1.000,-90.00,180.00,-45.00,OPEN,0
557332.076,2,0,0,1.000,1.000,1.000,-90.00,180.00,-45.00,OPEN,0
557332.087,2,0,0,1.000,1.000,1.000,-90.00,180.00,-45.00,OPEN,0
557332.098,2,0,0,1.000,1.000,1.000,-90.00,180.00,-45.00,OPEN,0
557332.109,2,0,0,1.000,1.000,1.000,-90.00,180.00,-45.00,OPEN,0
557332.120,2,0,0,1.000,1.000,1.000,-90.00,180.00,-45.00,OPEN,0
557332.131,2,0,0,1.000,1.000,1.000,-90.00,180.00,-45.00,OPEN,0
557332.141,2,0,0,1.000,1.000,1.000,-90.00,180.00,-45.00,OPEN,0
557332.152,2,0,0,1.000,1.000,1.000,-90.00,180.00,-45.00,OPEN,0
557332.163,2,0,0,1.000,1.000,1.000,-90.00,180.00,-45.00,OPEN,0
557332.174,2,0,0,1.000,1.000,1.000,-90.00,180.00,-45.00,OPEN,0
557332.186,2,0,0,1.000,1.000,1.000,-90.00,180.00,-45.00,OPEN,0
557332.197,2,0,0,1.000,1.000,1.000,-90.00,180.00,-45.00,OPEN,0
557332.208,2,0,0,1.000,1.000,1.000,-90.00,180.00,-45.00,OPEN,0
557332.221,2,0,0,1.000,1.000,1.000,-90.00,180.00,-45.00,OPEN,0
557332.231,2,0,0,1.000,1.000,1.000,-90.00,180.00,-45.00,OPEN,0
557332.243,2,0,0,1.000,1.000,1.000,-90.00,180.00,-45.00,OPEN,0
557332.255,2,0,0,1.000,1.000,1.000,-90.00,180.00,-45.00,OPEN,0
557332.266,2,0,0,1.000,1.000,1.000,-90.00,180.00,-45.00,OPEN,0
557332.277,2,0,0,1.000,1.000,1.000,-90.00,180.00,-45.00,OPEN,0
557332.288,2,0,0,1.000,1.000,1.000,-90.00,180.00,-45.00,OPEN,0
557332.299,2,0,0,1.000,1.000,1.000,-90.00,180.00,-45.00,OPEN,0
557332.310,2,0,0,1.000,1.000,1.000,-90.00,180.00,-45.00,OPEN,0
557332.321,2,0,0,1.000,1.000,1.000,-90.00,180.00,-45.00,OPEN,0
557332.332,2,0,0,1.000,1.000,1.000,-90.00,180.00,-45.00,OPEN,0
557332.343,2,0,0,1.000,1.000,1.000,-90.00,180.00,-45.00,OPEN,0
557332.354,2,0,0,1.000,1.000,1.000,-90.00,180.00,-45.00,OPEN,0
557332.365,2,0,0,1.000,1.000,1.000,-90.00,180.00,-45.00,OPEN,0
557332.376,2,0,0,1.000,1.000,1.000,-90.00,180.00,-45.00,OPEN,0
557332.386,2,0,0,1.000,1.000,1.000,-90.00,180.00,-45.00,OPEN,0
557332.397,2,0,0,1.000,1.000,1.000,-90.00,180.00,-45.00,OPEN,0
557332.409,2,0,0,1.000,1.000,1.000,-90.00,180.00,-45.00,OPEN,0
557332.420,2,0,0,1.000,1.000,1.000,-90.00,180.00,-45.00,OPEN,0
557332.431,2,0,0,1.000,1.000,1.000,-90.00,180.00,-45.00,OPEN,0
557332.442,2,0,0,1.000,1.000,1.000,-90.00,180.00,-45.00,OPEN,0
557332.453,2,0,0,1.000,1.000,1.000,-90.00,180.00,-45.00,OPEN,0
557332.464,2,0,0,1.000,1.000,1.000,-90.00,180.00,-45.00,OPEN,0
557332.475,2,0,0,1.000,1.000,1.000,-90.00,180.00,-45.00,OPEN,0
557332.485,2,0,0,1.000,1.000,1.000,-90.00,180.00,-45.00,OPEN,0
557332.496,2,0,0,1.000,1.000,1.000,-90.00,180.00,-45.00,OPEN,0
557332.507,2,0,0,1.000,1.000,1.000,-90.00,180.00,-45.00,OPEN,0
557332.518,2,0,0,1.000,1.000,1.000,-90.00,180.00,-45.00,OPEN,0
557332.528,2,0,0,1.000,1.000,1.000,-90.00,180.00,-45.00,OPEN,0
557332.539,2,0,0,1.000,1.000,1.000,-90.00,180.00,-45.00,OPEN,0
557332.549,2,0,0,1.000,1.000,1.000,-90.00,180.00,-45.00,OPEN,0
557332.560,2,0,0,1.000,1.000,1.000,-90.00,180.00,-45.00,OPEN,0
557332.571,2,0,0,1.000,1.000,1.000,-90.00,180.00,-45.00,OPEN,0
557332.582,2,0,0,1.000,1.000,1.000,-90.00,180.00,-45.00,OPEN,0
557332.593,2,0,0,1.000,1.000,1.000,-90.00,180.00,-45.00,OPEN,0
557332.604,2,0,0,1.000,1.000,1.000,-90.00,180.00,-45.00,OPEN,0
557332.615,2,0,0,1.000,1.000,1.000,-90.00,180.00,-45.00,OPEN,0
557332.626,2,0,0,1.000,1.000,1.000,-90.00,180.00,-45.00,OPEN,0
557332.636,2,0,0,1.000,1.000,1.000,-90.00,180.00,-45.00,OPEN,0
557332.647,2,0,0,1.000,1.000,1.000,-90.00,180.00,-45.00,OPEN,0
557332.658,2,0,0,1.000,1.000,1.000,-90.00,180.00,-45.00,OPEN,0
557332.670,2,0,0,1.000,1.000,1.000,-90.00,180.00,-45.00,OPEN,0
557332.681,2,0,0,1.000,1.000,1.000,-90.00,180.00,-45.00,OPEN,0
557332.693,2,0,0,1.000,1.000,1.000,-90.00,180.00,-45.00,OPEN,0
557332.704,2,0,0,1.000,1.000,1.000,-90.00,180.00,-45.00,OPEN,0
557332.715,2,0,0,1.000,1.000,1.000,-90.00,180.00,-45.00,OPEN,0
557332.726,2,0,0,1.000,1.000,1.000,-90.00,180.00,-45.00,OPEN,0
557332.736,2,0,0,1.000,1.000,1.000,-90.00,180.00,-45.00,OPEN,0
557332.747,2,0,0,1.000,1.000,1.000,-90.00,180.00,-45.00,OPEN,0
557332.758,2,0,0,1.000,1.000,1.000,-90.00,180.00,-45.00,OPEN,0
557332.769,2,0,0,1.000,1.000,1.000,-90.00,180.00,-45.00,OPEN,0
557332.780,2,0,0,1.000,1.000,1.000,-90.00,180.00,-45.00,OPEN,0
557332.791,2,0,0,1.000,1.000,1.000,-90.00,180.00,-45.00,OPEN,0
557332.803,2,0,0,1.000,1.000,1.000,-90.00,180.00,-45.00,OPEN,0
557332.813,2,0,0,1.000,1.000,1.000,-90.00,180.00,-45.00,OPEN,0
557332.824,2,0,0,1.000,1.000,1.000,-90.00,180.00,-45.00,OPEN,0
557332.837,2,0,0,1.000,1.000,1.000,-90.00,180.00,-45.00,OPEN,0
557332.847,2,0,0,1.000,1.000,1.000,-90.00,180.00,-45.00,OPEN,0
557332.859,2,0,0,1.000,1.000,1.000,-90.00,180.00,-45.00,OPEN,0
557332.870,2,0,0,1.000,1.000,1.000,-90.00,180.00,-45.00,OPEN,0
557332.881,2,0,0,1.000,1.000,1.000,-90.00,180.00,-45.00,OPEN,0
557332.892,2,0,0,1.000,1.000,1.000,-90.00,180.00,-45.00,OPEN,0
557332.903,2,0,0,1.000,1.000,1.000,-90.00,180.00,-45.00,OPEN,0
557332.914,2,0,0,0.999,1.000,1.000,-90.00,180.00,-45.00,OPEN,0
557332.925,2,0,0,0.999,1.000,1.000,-90.00,180.00,-45.00,OPEN,0
557332.935,2,0,0,0.999,1.000,1.000,-90.00,180.00,-45.00,OPEN,0
557332.946,2,0,0,0.999,1.000,1.000,-90.00,180.00,-45.00,OPEN,0
557332.957,2,0,0,0.999,1.000,1.000,-90.00,180.00,-45.00,OPEN,0
557332.968,2,0,0,0.998,1.000,1.000,-90.00,180.00,-45.00,OPEN,0
557332.978,2,0,0,0.998,1.000,1.000,-90.00,180.00,-45.00,OPEN,0
557332.989,2,0,0,0.998,1.000,1.000,-90.00,180.00,-45.00,OPEN,0
557333.000,2,0,0,0.998,1.000,1.000,-90.00,180.00,-45.00,OPEN,0
557333.011,2,0,0,0.998,1.000,1.000,-90.00,180.00,-45.00,OPEN,0
557333.022,2,0,0,0.993,1.000,1.000,-90.00,180.00,-45.00,OPEN,0
557333.033,2,0,0,0.993,1.000,1.000,-90.00,180.00,-45.00,OPEN,0
557333.043,2,0,0,0.993,1.000,1.000,-90.00,180.00,-45.00,OPEN,0
557333.054,2,0,0,0.993,1.000,1.000,-90.00,180.00,-45.00,OPEN,0
557333.065,2,0,0,0.955,1.000,1.000,-90.00,180.00,-45.00,OPEN,0
557333.077,2,0,0,0.955,1.000,1.000,-90.00,180.00,-45.00,OPEN,0
557333.087,2,0,0,0.955,1.000,1.000,-90.00,180.00,-45.00,OPEN,0
557333.098,2,0,0,0.955,1.000,1.000,-90.00,180.00,-45.00,OPEN,0
557333.109,2,0,0,0.955,1.000,1.000,-90.00,180.00,-45.00,OPEN,0
557333.120,2,0,0,0.851,1.000,1.000,-90.00,180.00,-45.00,OPEN,0
557333.131,2,0,0,0.851,1.000,1.000,-90.00,180.00,-45.00,OPEN,0
557333.141,2,0,0,0.851,1.000,1.000,-90.00,180.00,-45.00,OPEN,0
557333.153,2,0,0,0.851,1.000,1.000,-90.00,180.00,-45.00,OPEN,0
557333.164,2,0,0,0.647,1.000,1.000,-90.00,180.00,-45.00,OPEN,0
557333.176,2,0,0,0.647,1.000,1.000,-90.00,180.00,-45.00,OPEN,0
557333.187,2,0,0,0.647,1.000,1.000,-90.00,180.00,-45.00,OPEN,0
557333.197,2,0,0,0.647,1.000,1.000,-90.00,180.00,-45.00,OPEN,0
557333.209,2,0,0,0.647,1.000,1.000,-90.00,180.00,-45.00,OPEN,0
557333.220,2,0,0,0.754,1.000,1.000,-90.00,180.00,-45.00,OPEN,0
557333.231,2,0,0,0.754,1.000,1.000,-90.00,180.00,-45.00,OPEN,0
557333.241,2,0,0,0.754,1.000,1.000,-90.00,180.00,-45.00,OPEN,0
557333.253,2,0,0,0.754,1.000,1.000,-90.00,180.00,-45.00,OPEN,0
557333.263,2,0,0,0.754,1.000,1.000,-90.00,180.00,-45.00,OPEN,0
557333.274,2,0,0,0.920,1.000,1.000,-90.00,180.00,-45.00,OPEN,0
557333.286,2,0,0,0.920,1.000,1.000,-90.00,180.00,-45.00,OPEN,0
557333.297,2,0,0,0.920,1.000,1.000,-90.00,180.00,-45.00,OPEN,0
557333.309,2,0,0,0.920,1.000,1.000,-90.00,180.00,-45.00,OPEN,0
557333.321,2,0,0,0.966,1.000,1.000,-90.00,180.00,-45.00,OPEN,0
557333.332,2,0,0,0.966,1.000,1.000,-90.00,180.00,-45.00,OPEN,0
