t,hand,elbow,shoulder,p_hand,p_elbow,p_shoulder,J2,J3,J6,grip_state,cmd_sent
557072.692,0,0,0,1.000,1.000,0.939,-90.00,180.00,0.00,OPEN,0
557072.702,0,0,0,1.000,1.000,0.939,-90.00,180.00,0.00,OPEN,0
557072.713,0,0,0,1.000,1.000,0.939,-90.00,180.00,0.00,OPEN,0
557072.724,0,0,0,1.000,1.000,0.939,-90.00,180.00,0.00,OPEN,0
557072.734,0,0,0,1.000,1.000,0.939,-90.00,180.00,0.00,OPEN,0
557072.745,0,0,0,1.000,1.000,0.955,-90.00,180.00,0.00,OPEN,0
557072.756,0,0,0,1.000,1.000,0.955,-90.00,180.00,0.00,OPEN,0
557072.766,0,0,0,1.000,1.000,0.955,-90.00,180.00,0.00,OPEN,0
557072.777,0,0,0,1.000,1.000,0.955,-90.00,180.00,0.00,OPEN,0
557072.787,0,0,0,1.000,1.000,0.955,-90.00,180.00,0.00,OPEN,0
557072.798,0,0,0,1.000,1.000,0.977,-90.00,180.00,0.00,OPEN,0
557072.808,0,0,0,1.000,1.000,0.977,-90.00,180.00,0.00,OPEN,0
557072.819,0,0,0,1.000,1.000,0.977,-90.00,180.00,0.00,OPEN,0
557072.829,0,0,0,1.000,1.000,0.977,-90.00,180.00,0.00,OPEN,0
557072.840,0,0,0,1.000,1.000,0.977,-90.00,180.00,0.00,OPEN,0
557072.850,0,0,0,1.000,1.000,0.989,-90.00,180.00,0.00,OPEN,0
557072.861,0,0,0,1.000,1.000,0.989,-90.00,180.00,0.00,OPEN,0
557072.871,0,0,0,1.000,1.000,0.989,-90.00,180.00,0.00,OPEN,0
557072.882,0,0,0,1.000,1.000,0.989,-90.00,180.00,0.00,OPEN,0
557072.892,0,0,0,1.000,1.000,0.993,-90.00,180.00,0.00,OPEN,0
557072.903,0,0,0,1.000,1.000,0.993,-90.00,180.00,0.00,OPEN,0
557072.913,0,0,0,1.000,1.000,0.993,-90.00,180.00,0.00,OPEN,0
557072.924,0,0,0,1.000,1.000,0.993,-90.00,180.00,0.00,OPEN,0
557072.934,0,0,0,1.000,1.000,0.993,-90.00,180.00,0.00,OPEN,0
557072.944,0,0,0,1.000,1.000,0.996,-90.00,180.00,0.00,OPEN,0
557072.955,0,0,0,1.000,1.000,0.996,-90.00,180.00,0.00,OPEN,0
557072.965,0,0,0,1.000,1.000,0.996,-90.00,180.00,0.00,OPEN,0
557072.976,0,0,0,1.000,1.000,0.996,-90.00,180.00,0.00,OPEN,0
557072.986,0,0,0,1.000,1.000,0.996,-90.00,180.00,0.00,OPEN,0
557072.997,0,0,0,1.000,1.000,0.997,-90.00,180.00,0.00,OPEN,0
557073.007,0,0,0,1.000,1.000,0.997,-90.00,180.00,0.00,OPEN,0
557073.018,0,0,0,1.000,1.000,0.997,-90.00,180.00,0.00,OPEN,0
557073.028,0,0,0,1.000,1.000,0.997,-90.00,180.00,0.00,OPEN,0
557073.039,0,0,0,1.000,1.000,0.997,-90.00,180.00,0.00,OPEN,0
557073.049,0,0,0,1.000,1.000,0.995,-90.00,180.00,0.00,OPEN,0
557073.060,0,0,0,1.000,1.000,0.995,-90.00,180.00,0.00,OPEN,0
557073.070,0,0,0,1.000,1.000,0.995,-90.00,180.00,0.00,OPEN,0
557073.081,0,0,0,1.000,1.000,0.995,-90.00,180.00,0.00,OPEN,0
557073.091,0,0,0,1.000,1.000,0.995,-90.00,180.00,0.00,OPEN,0
557073.102,0,0,0,1.000,1.000,0.993,-90.00,180.00,0.00,OPEN,0
557073.112,0,0,0,1.000,1.000,0.993,-90.00,180.00,0.00,OPEN,0
557073.123,0,0,0,1.000,1.000,0.993,-90.00,180.00,0.00,OPEN,0
557073.133,0,0,0,1.000,1.000,0.993,-90.00,180.00,0.00,OPEN,0
557073.144,0,0,0,1.000,1.000,0.990,-90.00,180.00,0.00,OPEN,0
557073.154,0,0,0,1.000,1.000,0.990,-90.00,180.00,0.00,OPEN,0
557073.165,0,0,0,1.000,1.000,0.990,-90.00,180.00,0.00,OPEN,0
557073.175,0,0,0,1.000,1.000,0.990,-90.00,180.00,0.00,OPEN,0
557073.186,0,0,0,1.000,1.000,0.990,-90.00,180.00,0.00,OPEN,0
557073.196,0,0,0,1.000,1.000,0.987,-90.00,180.00,0.00,OPEN,0
557073.207,0,0,0,1.000,1.000,0.987,-90.00,180.00,0.00,OPEN,0
557073.218,0,0,0,1.000,1.000,0.987,-90.00,180.00,0.00,OPEN,0
557073.228,0,0,0,1.000,1.000,0.987,-90.00,180.00,0.00,OPEN,0
557073.239,0,0,0,1.000,1.000,0.987,-90.00,180.00,0.00,OPEN,0
557073.249,0,0,0,1.000,1.000,0.993,-90.00,180.00,0.00,OPEN,0
557073.260,0,0,0,1.000,1.000,0.993,-90.00,180.00,0.00,OPEN,0
557073.270,0,0,0,1.000,1.000,0.993,-90.00,180.00,0.00,OPEN,0
557073.281,0,0,0,1.000,1.000,0.993,-90.00,180.00,0.00,OPEN,0
557073.291,0,0,0,1.000,1.000,0.993,-90.00,180.00,0.00,OPEN,0
557073.302,0,0,0,1.000,1.000,0.996,-90.00,180.00,0.00,OPEN,0
557073.312,0,0,0,1.000,1.000,0.996,-90.00,180.00,0.00,OPEN,0
557073.323,0,0,0,1.000,1.000,0.996,-90.00,180.00,0.00,OPEN,0
557073.333,0,0,0,1.000,1.000,0.996,-90.00,180.00,0.00,OPEN,0
557073.344,0,0,0,1.000,1.000,0.995,-90.00,180.00,0.00,OPEN,0
557073.355,0,0,0,1.000,1.000,0.995,-90.00,180.00,0.00,OPEN,0
557073.365,0,0,0,1.000,1.000,0.995,-90.00,180.00,0.00,OPEN,0
557073.376,0,0,0,1.000,1.000,0.995,-90.00,180.00,0.00,OPEN,0
557073.387,0,0,0,1.000,1.000,0.995,-90.00,180.00,0.00,OPEN,0
557073.397,0,0,0,1.000,1.000,0.994,-90.00,180.00,0.00,OPEN,0
557073.408,0,0,0,1.000,1.000,0.994,-90.00,180.00,0.00,OPEN,0
557073.419,0,0,0,1.000,1.000,0.994,-90.00,180.00,0.00,OPEN,0
557073.429,0,0,0,1.000,1.000,0.994,-90.00,180.00,0.00,OPEN,0
557073.440,0,0,0,1.000,1.000,0.994,-90.00,180.00,0.00,OPEN,0
557073.450,0,0,0,1.000,1.000,0.989,-90.00,180.00,0.00,OPEN,0
557073.461,0,0,0,1.000,1.000,0.989,-90.00,180.00,0.00,OPEN,0
557073.471,0,0,0,1.000,1.000,0.989,-90.00,180.00,0.00,OPEN,0
557073.481,0,0,0,1.000,1.000,0.989,-90.00,180.00,0.00,OPEN,0
557073.492,0,0,0,1.000,1.000,0.985,-90.00,180.00,0.00,OPEN,0
557073.503,0,0,0,1.000,1.000,0.985,-90.00,180.00,0.00,OPEN,0
557073.513,0,0,0,1.000,1.000,0.985,-90.00,180.00,0.00,OPEN,0
557073.524,0,0,0,1.000,1.000,0.985,-90.00,180.00,0.00,OPEN,0
557073.534,0,0,0,1.000,1.000,0.985,-90.00,180.00,0.00,OPEN,0
557073.545,0,0,0,1.000,1.000,0.974,-90.00,180.00,0.00,OPEN,0
557073.555,0,0,0,1.000,1.000,0.974,-90.00,180.00,0.00,OPEN,0
557073.566,0,0,0,1.000,1.000,0.974,-90.00,180.00,0.00,OPEN,0
557073.576,0,0,0,1.000,1.000,0.974,-90.00,180.00,0.00,OPEN,0
557073.587,0,0,0,1.000,1.000,0.974,-90.00,180.00,0.00,OPEN,0
557073.597,0,0,0,1.000,1.000,0.953,-90.00,180.00,0.00,OPEN,0
557073.608,0,0,0,1.000,1.000,0.953,-90.00,180.00,0.00,OPEN,0
557073.618,0,0,0,1.000,1.000,0.953,-90.00,180.00,0.00,OPEN,0
557073.629,0,0,0,1.000,1.000,0.953,-90.00,180.00,0.00,OPEN,0
557073.640,0,0,0,1.000,1.000,0.953,-90.00,180.00,0.00,OPEN,0
557073.650,0,0,0,1.000,1.000,0.841,-90.00,180.00,0.00,OPEN,0
557073.661,0,0,0,1.000,1.000,0.841,-90.00,180.00,0.00,OPEN,0
557073.672,0,0,0,1.000,1.000,0.841,-90.00,180.00,0.00,OPEN,0
557073.683,0,0,0,1.000,1.000,0.841,-90.00,180.00,0.00,OPEN,0
557073.693,0,0,0,1.000,1.000,0.714,-90.00,180.00,0.00,OPEN,0
557073.705,0,0,0,1.000,1.000,0.714,-90.00,180.00,0.00,OPEN,0
557073.716,0,0,0,1.000,1.000,0.714,-90.00,180.00,0.00,OPEN,0
557073.726,0,0,0,1.000,1.000,0.714,-90.00,180.00,0.00,OPEN,0
557073.737,0,0,0,1.000,1.000,0.714,-90.00,180.00,0.00,OPEN,0
557073.748,0,0,0,1.000,1.000,0.795,-90.00,180.00,0.00,OPEN,0
557073.758,0,0,0,1.000,1.000,0.795,-90.00,180.00,0.00,OPEN,0
557073.769,0,0,0,1.000,1.000,0.795,-90.00,180.00,0.00,OPEN,0
557073.779,0,0,0,1.000,1.000,0.795,-90.00,180.00,0.00,OPEN,0
557073.790,0,0,0,1.000,1.000,0.795,-90.00,180.00,0.00,OPEN,0
557073.800,0,0,0,1.000,1.000,0.870,-90.00,180.00,0.00,OPEN,0
557073.811,0,0,0,1.000,1.000,0.870,-90.00,180.00,0.00,OPEN,0
557073.821,0,0,0,1.000,1.000,0.870,-90.00,180.00,0.00,OPEN,0
557073.832,0,0,0,1.000,1.000,0.870,-90.00,180.00,0.00,OPEN,0
557073.843,0,0,0,0.956,1.000,0.959,-90.00,180.00,0.00,OPEN,0
557073.853,0,0,0,0.956,1.000,0.959,-90.00,180.00,0.00,OPEN,0
557073.864,0,0,0,0.956,1.000,0.959,-90.00,180.00,0.00,OPEN,0
557073.874,0,0,0,0.956,1.000,0.959,-90.00,180.00,0.00,OPEN,0
557073.884,0,0,0,0.956,1.000,0.959,-90.00,180.00,0.00,OPEN,0
557073.895,0,0,0,1.000,1.000,0.994,-90.00,180.00,0.00,OPEN,0
557073.906,0,0,0,1.000,1.000,0.994,-90.00,180.00,0.00,OPEN,0
557073.916,0,0,0,1.000,1.000,0.994,-90.00,180.00,0.00,OPEN,0
557073.927,0,0,0,1.000,1.000,0.994,-90.00,180.00,0.00,OPEN,0
557073.937,0,0,0,1.000,1.000,0.994,-90.00,180.00,0.00,OPEN,0
557073.948,0,0,0,0.891,1.000,0.998,-90.00,180.00,0.00,OPEN,0
557073.958,0,0,0,0.891,1.000,0.998,-90.00,180.00,0.00,OPEN,0
557073.968,0,0,0,0.891,1.000,0.998,-90.00,180.00,0.00,OPEN,0
557073.979,0,0,0,0.891,1.000,0.998,-90.00,180.00,0.00,OPEN,0
557073.989,0,0,0,0.891,1.000,0.998,-90.00,180.00,0.00,OPEN,0
557073.999,0,0,0,0.581,1.000,0.999,-90.00,180.00,0.00,OPEN,0
557074.010,0,0,0,0.581,1.000,0.999,-90.00,180.00,0.00,OPEN,0
557074.021,0,0,0,0.581,1.000,0.999,-90.00,180.00,0.00,OPEN,0
557074.031,0,0,0,0.581,1.000,0.999,-90.00,180.00,0.00,OPEN,0
557074.041,0,0,0,0.581,1.000,0.999,-90.00,180.00,0.00,OPEN,0
557074.052,0,0,0,0.575,1.000,0.999,-90.00,180.00,0.00,OPEN,0
557074.063,0,0,0,0.575,1.000,0.999,-90.00,180.00,0.00,OPEN,0
557074.073,0,0,0,0.575,1.000,0.999,-90.00,180.00,0.00,OPEN,0
557074.084,0,0,0,0.575,1.000,0.999,-90.00,180.00,0.00,OPEN,0
557074.094,0,0,0,0.560,1.000,0.999,-90.00,180.00,0.00,OPEN,0
557074.105,0,0,0,0.560,1.000,0.999,-90.00,180.00,0.00,OPEN,0
557074.116,0,0,0,0.560,1.000,0.999,-90.00,180.00,0.00,OPEN,0
557074.126,0,0,0,0.560,1.000,0.999,-90.00,180.00,0.00,OPEN,0
557074.137,0,0,0,0.560,1.000,0.999,-90.00,180.00,0.00,OPEN,0
557074.147,0,0,0,0.888,1.000,0.999,-90.00,180.00,0.00,OPEN,0
557074.158,0,0,0,0.888,1.000,0.999,-90.00,180.00,0.00,OPEN,0
557074.169,0,0,0,0.888,1.000,0.999,-90.00,180.00,0.00,OPEN,0
557074.179,0,0,0,0.888,1.000,0.999,-90.00,180.00,0.00,OPEN,0
557074.190,0,0,0,0.888,1.000,0.999,-90.00,180.00,0.00,OPEN,0
557074.201,0,0,0,0.990,1.000,0.999,-90.00,180.00,0.00,OPEN,0
557074.211,0,0,0,0.990,1.000,0.999,-90.00,180.00,0.00,OPEN,0
557074.222,0,0,0,0.990,1.000,0.999,-90.00,180.00,0.00,OPEN,0
557074.232,0,0,0,0.990,1.000,0.999,-90.00,180.00,0.00,OPEN,0
557074.243,0,0,0,0.999,1.000,0.999,-90.00,180.00,0.00,OPEN,0
557074.253,0,0,0,0.999,1.000,0.999,-90.00,180.00,0.00,OPEN,0
557074.264,0,0,0,0.999,1.000,0.999,-90.00,180.00,0.00,OPEN,0
557074.274,0,0,0,0.999,1.000,0.999,-90.00,180.00,0.00,OPEN,0
557074.285,0,0,0,0.999,1.000,0.999,-90.00,180.00,0.00,OPEN,0
557074.295,0,0,0,1.000,1.000,0.999,-90.00,180.00,0.00,OPEN,0
557074.306,0,0,0,1.000,1.000,0.999,-90.00,180.00,0.00,OPEN,0
557074.316,0,0,0,1.000,1.000,0.999,-90.00,180.00,0.00,OPEN,0
557074.327,0,0,0,1.000,1.000,0.999,-90.00,180.00,0.00,OPEN,0
557074.338,0,0,0,1.000,1.000,0.999,-90.00,180.00,0.00,OPEN,0
557074.349,0,0,0,1.000,1.000,0.999,-90.00,180.00,0.00,OPEN,0
557074.359,0,0,0,1.000,1.000,0.999,-90.00,180.00,0.00,OPEN,0
557074.370,0,0,0,1.000,1.000,0.999,-90.00,180.00,0.00,OPEN,0
557074.381,0,0,0,1.000,1.000,0.999,-90.00,180.00,0.00,OPEN,0
557074.391,0,0,0,1.000,1.000,0.999,-90.00,180.00,0.00,OPEN,0
557074.402,0,0,0,1.000,1.000,0.999,-90.00,180.00,0.00,OPEN,0
557074.412,0,0,0,1.000,1.000,0.999,-90.00,180.00,0.00,OPEN,0
557074.423,0,0,0,1.000,1.000,0.999,-90.00,180.00,0.00,OPEN,0
557074.433,0,0,0,1.000,1.000,0.999,-90.00,180.00,0.00,OPEN,0
557074.444,0,0,0,1.000,1.000,0.999,-90.00,180.00,0.00,OPEN,0
557074.455,0,0,0,1.000,1.000,0.999,-90.00,180.00,0.00,OPEN,0
557074.465,0,0,0,1.000,1.000,0.999,-90.00,180.00,0.00,OPEN,0
557074.476,0,0,0,1.000,1.000,0.999,-90.00,180.00,0.00,OPEN,0
557074.487,0,0,0,1.000,1.000,0.999,-90.00,180.00,0.00,OPEN,0
557074.497,0,0,0,1.000,1.000,0.999,-90.00,180.00,0.00,OPEN,0
557074.508,0,0,0,1.000,1.000,0.999,-90.00,180.00,0.00,OPEN,0
557074.518,0,0,0,1.000,1.000,0.999,-90.00,180.00,0.00,OPEN,0
557074.528,0,0,0,1.000,1.000,0.999,-90.00,180.00,0.00,OPEN,0
557074.539,0,0,0,1.000,1.000,0.999,-90.00,180.00,0.00,OPEN,0
557074.549,1,0,0,1.000,1.000,0.999,-90.00,180.00,0.00,OPEN,0
557074.560,1,0,0,1.000,1.000,0.999,-90.00,180.00,0.00,OPEN,0
557074.570,1,0,0,1.000,1.000,0.999,-90.00,180.00,0.00,OPEN,0
557074.580,1,0,0,1.000,1.000,0.999,-90.00,180.00,0.00,OPEN,0
557074.591,1,0,0,1.000,1.000,0.999,-90.00,180.00,0.00,OPEN,0
557074.601,1,0,0,1.000,1.000,0.999,-90.00,180.00,0.00,OPEN,0
557074.612,1,0,0,1.000,1.000,0.999,-90.00,180.00,0.00,OPEN,0
557074.623,1,0,0,1.000,1.000,0.999,-90.00,180.00,0.00,OPEN,0
557074.633,1,0,0,1.000,1.000,0.999,-90.00,180.00,0.00,OPEN,0
557074.644,1,0,0,1.000,1.000,0.999,-90.00,180.00,0.00,OPEN,0
557074.655,1,0,0,1.000,1.000,0.999,-90.00,180.00,0.00,OPEN,0
557074.665,1,0,0,1.000,1.000,0.999,-90.00,180.00,0.00,OPEN,0
557074.676,1,0,0,1.000,1.000,0.999,-90.00,180.00,0.00,OPEN,0
557074.686,1,0,0,1.000,1.000,0.999,-90.00,180.00,0.00,OPEN,0
557074.697,1,0,0,1.000,1.000,0.999,-90.00,180.00,0.00,OPEN,0
557074.708,1,0,0,1.000,1.000,0.999,-90.00,180.00,0.00,OPEN,0
557074.718,1,0,0,1.000,1.000,0.999,-90.00,180.00,0.00,OPEN,0
557074.729,1,0,0,1.000,1.000,0.999,-90.00,180.00,0.00,OPEN,0
557074.740,1,0,0,1.000,1.000,0.999,-90.00,180.00,0.00,OPEN,0
557074.751,1,0,0,1.000,1.000,0.998,-90.00,180.00,0.00,OPEN,0
557074.761,1,0,0,1.000,1.000,0.998,-90.00,180.00,0.00,OPEN,0
557074.771,1,0,0,1.000,1.000,0.998,-90.00,180.00,0.00,OPEN,0
557074.782,1,0,0,1.000,1.000,0.998,-90.00,180.00,0.00,OPEN,0
557074.793,1,0,0,1.000,1.000,0.998,-90.00,180.00,0.00,OPEN,0
557074.803,1,0,0,1.000,1.000,0.998,-90.00,180.00,0.00,OPEN,0
557074.813,1,0,0,1.000,1.000,0.998,-90.00,180.00,0.00,OPEN,0
557074.824,1,0,0,1.000,1.000,0.998,-90.00,180.00,0.00,OPEN,0
557074.835,1,0,0,1.000,1.000,0.998,-90.00,180.00,0.00,OPEN,0
557074.845,1,0,0,1.000,1.000,0.997,-90.00,180.00,0.00,OPEN,0
557074.856,1,0,0,1.000,1.000,0.997,-90.00,180.00,0.00,OPEN,0
557074.866,1,0,0,1.000,1.000,0.997,-90.00,180.00,0.00,OPEN,0
557074.877,1,0,0,1.000,1.000,0.997,-90.00,180.00,0.00,OPEN,0
557074.888,1,0,0,1.000,1.000,0.997,-90.00,180.00,0.00,OPEN,0
557074.898,1,0,0,1.000,1.000,0.995,-90.00,180.00,0.00,OPEN,0
557074.909,1,0,0,1.000,1.000,0.995,-90.00,180.00,0.00,OPEN,0
557074.920,1,0,0,1.000,1.000,0.995,-90.00,180.00,0.00,OPEN,0
557074.930,1,0,0,1.000,1.000,0.995,-90.00,180.00,0.00,OPEN,0
557074.941,1,0,0,1.000,1.000,0.995,-90.00,180.00,0.00,OPEN,0
557074.951,1,0,0,1.000,1.000,0.990,-90.00,180.00,0.00,OPEN,0
557074.962,1,0,0,1.000,1.000,0.990,-90.00,180.00,0.00,OPEN,0
557074.973,1,0,0,1.000,1.000,0.990,-90.00,180.00,0.00,OPEN,0
557074.983,1,0,0,1.000,1.000,0.990,-90.00,180.00,0.00,OPEN,0
557074.994,1,0,0,1.000,1.000,0.993,-90.00,180.00,0.00,OPEN,0
557075.004,1,0,0,1.000,1.000,0.993,-90.00,180.00,0.00,OPEN,0
557075.015,1,0,0,1.000,1.000,0.993,-90.00,180.00,0.00,OPEN,0
557075.025,1,0,0,1.000,1.000,0.993,-90.00,180.00,0.00,OPEN,0
557075.036,1,0,0,1.000,1.000,0.993,-90.00,180.00,0.00,OPEN,0
557075.047,1,0,0,1.000,1.000,0.994,-90.00,180.00,0.00,OPEN,0
557075.057,1,0,0,1.000,1.000,0.994,-90.00,180.00,0.00,OPEN,0
557075.068,1,0,0,1.000,1.000,0.994,-90.00,180.00,0.00,OPEN,0
557075.078,1,0,0,1.000,1.000,0.994,-90.00,180.00,0.00,OPEN,0
557075.088,1,0,0,1.000,1.000,0.994,-90.00,180.00,0.00,OPEN,0
557075.099,1,0,0,1.000,1.000,0.994,-90.00,180.00,0.00,OPEN,0
557075.110,1,0,0,1.000,1.000,0.994,-90.00,180.00,0.00,OPEN,0
557075.120,1,0,0,1.000,1.000,0.994,-90.00,180.00,0.00,OPEN,0
557075.131,1,0,0,1.000,1.000,0.994,-90.00,180.00,0.00,OPEN,0
557075.141,1,0,0,1.000,1.000,0.994,-90.00,180.00,0.00,OPEN,0
557075.152,1,0,0,1.000,1.000,0.996,-90.00,180.00,0.00,OPEN,0
557075.163,1,0,0,1.000,1.000,0.996,-90.00,180.00,0.00,OPEN,0
557075.174,1,0,0,1.000,1.000,0.996,-90.00,180.00,0.00,OPEN,0
557075.184,1,0,0,1.000,1.000,0.996,-90.00,180.00,0.00,OPEN,0
557075.195,1,0,0,1.000,1.000,0.992,-90.00,180.00,0.00,OPEN,0
557075.205,1,0,0,1.000,1.000,0.992,-90.00,180.00,0.00,OPEN,0
557075.216,1,0,0,1.000,1.000,0.992,-90.00,180.00,0.00,OPEN,0
557075.226,1,0,0,1.000,1.000,0.992,-90.00,180.00,0.00,OPEN,0
557075.237,1,0,0,1.000,1.000,0.992,-90.00,180.00,0.00,OPEN,0
557075.247,1,0,0,1.000,1.000,0.988,-90.00,180.00,0.00,OPEN,0
557075.258,1,0,0,1.000,1.000,0.988,-90.00,180.00,0.00,OPEN,0
557075.269,1,0,0,1.000,1.000,0.988,-90.00,180.00,0.00,OPEN,0
557075.279,1,0,0,1.000,1.000,0.988,-90.00,180.00,0.00,OPEN,0
557075.290,1,0,0,1.000,1.000,0.988,-90.00,180.00,0.00,OPEN,0
557075.300,1,0,0,1.000,1.000,0.983,-90.00,180.00,0.00,OPEN,0
557075.310,1,0,0,1.000,1.000,0.983,-90.00,180.00,0.00,OPEN,0
557075.321,1,0,0,1.000,1.000,0.983,-90.00,180.00,0.00,OPEN,0
557075.332,1,0,0,1.000,1.000,0.983,-90.00,180.00,0.00,OPEN,0
557075.342,1,0,0,1.000,1.000,0.996,-90.00,180.00,0.00,OPEN,0
557075.352,1,0,0,1.000,1.000,0.996,-90.00,180.00,0.00,OPEN,0
557075.363,1,0,0,1.000,1.000,0.996,-90.00,180.00,0.00,OPEN,0
557075.373,1,0,0,1.000,1.000,0.996,-90.00,180.00,0.00,OPEN,0
557075.384,1,0,0,1.000,1.000,0.996,-90.00,180.00,0.00,OPEN,0
557075.394,1,0,0,1.000,1.000,0.996,-90.00,180.00,0.00,OPEN,0
557075.405,1,0,0,1.000,1.000,0.996,-90.00,180.00,0.00,OPEN,0
557075.416,1,0,0,1.000,1.000,0.996,-90.00,180.00,0.00,OPEN,0
557075.427,1,0,0,1.000,1.000,0.996,-90.00,180.00,0.00,OPEN,0
557075.437,1,0,0,1.000,1.000,0.996,-90.00,180.00,0.00,OPEN,0
557075.448,1,0,0,1.000,1.000,0.993,-90.00,180.00,0.00,OPEN,0
557075.458,1,0,0,1.000,1.000,0.993,-90.00,180.00,0.00,OPEN,0
557075.469,1,0,0,1.000,1.000,0.993,-90.00,180.00,0.00,OPEN,0
557075.480,1,0,0,1.000,1.000,0.993,-90.00,180.00,0.00,OPEN,0
557075.490,1,0,0,1.000,1.000,0.993,-90.00,180.00,0.00,OPEN,0
557075.501,1,0,0,1.000,1.000,0.994,-90.00,180.00,0.00,OPEN,0
557075.511,1,0,0,1.000,1.000,0.994,-90.00,180.00,0.00,OPEN,0
557075.522,1,0,0,1.000,1.000,0.994,-90.00,180.00,0.00,OPEN,0
557075.533,1,0,0,1.000,1.000,0.994,-90.00,180.00,0.00,OPEN,0
557075.543,1,0,0,1.000,1.000,0.994,-90.00,180.00,0.00,OPEN,0
557075.554,1,0,0,1.000,1.000,0.994,-90.00,180.00,0.00,OPEN,0
557075.564,1,0,0,1.000,1.000,0.994,-90.00,180.00,0.00,OPEN,0
557075.575,1,0,0,1.000,1.000,0.994,-90.00,180.00,0.00,OPEN,0
557075.585,1,0,0,1.000,1.000,0.994,-90.00,180.00,0.00,OPEN,0
557075.596,1,0,0,1.000,1.000,0.994,-90.00,180.00,0.00,OPEN,0
557075.606,1,0,0,1.000,1.000,0.994,-90.00,180.00,0.00,OPEN,0
557075.617,1,0,0,1.000,1.000,0.994,-90.00,180.00,0.00,OPEN,0
557075.627,1,0,0,1.000,1.000,0.994,-90.00,180.00,0.00,OPEN,0
557075.638,1,0,0,1.000,1.000,0.994,-90.00,180.00,0.00,OPEN,0
557075.648,1,0,0,1.000,1.000,0.975,-90.00,180.00,0.00,OPEN,0
557075.659,1,0,0,1.000,1.000,0.975,-90.00,180.00,0.00,OPEN,0
557075.670,1,0,0,1.000,1.000,0.975,-90.00,180.00,0.00,OPEN,0
557075.681,1,0,0,1.000,1.000,0.975,-90.00,180.00,0.00,OPEN,0
557075.691,1,0,0,1.000,1.000,0.975,-90.00,180.00,0.00,OPEN,0
557075.702,1,0,0,1.000,1.000,0.835,-90.00,180.00,0.00,OPEN,0
557075.712,1,0,0,1.000,1.000,0.835,-90.00,180.00,0.00,OPEN,0
557075.723,1,0,0,1.000,1.000,0.835,-90.00,180.00,0.00,OPEN,0
557075.733,1,0,0,1.000,1.000,0.835,-90.00,180.00,0.00,OPEN,0
557075.744,1,0,0,1.000,1.000,0.807,-90.00,180.00,0.00,OPEN,0
557075.755,1,0,0,1.000,1.000,0.807,-90.00,180.00,0.00,OPEN,0
557075.765,1,0,0,1.000,1.000,0.807,-90.00,180.00,0.00,OPEN,0
557075.776,1,0,0,1.000,1.000,0.807,-90.00,180.00,0.00,OPEN,0
557075.786,1,0,0,1.000,1.000,0.807,-90.00,180.00,0.00,OPEN,0
557075.797,1,0,0,1.000,1.000,0.937,-90.00,180.00,0.00,OPEN,0
557075.808,1,0,0,1.000,1.000,0.937,-90.00,180.00,0.00,OPEN,0
557075.819,1,0,0,1.000,1.000,0.937,-90.00,180.00,0.00,OPEN,0
557075.830,1,0,0,1.000,1.000,0.937,-90.00,180.00,0.00,OPEN,0
557075.841,1,0,0,1.000,1.000,0.937,-90.00,180.00,0.00,OPEN,0
557075.851,1,0,0,1.000,1.000,0.977,-90.00,180.00,0.00,OPEN,0
557075.861,1,0,0,1.000,1.000,0.977,-90.00,180.00,0.00,OPEN,0
557075.872,1,0,0,1.000,1.000,0.977,-90.00,180.00,0.00,OPEN,0
557075.882,1,0,0,1.000,1.000,0.977,-90.00,180.00,0.00,OPEN,0
557075.893,1,0,0,1.000,1.000,0.987,-90.00,180.00,0.00,OPEN,0
557075.903,1,0,0,1.000,1.000,0.987,-90.00,180.00,0.00,OPEN,0
557075.914,1,0,0,1.000,1.000,0.987,-90.00,180.00,0.00,OPEN,0
557075.924,1,0,0,1.000,1.000,0.987,-90.00,180.00,0.00,OPEN,0
557075.935,1,0,0,1.000,1.000,0.987,-90.00,180.00,0.00,OPEN,0
557075.946,1,0,0,1.000,1.000,0.992,-90.00,180.00,0.00,OPEN,0
557075.956,1,0,0,1.000,1.000,0.992,-90.00,180.00,0.00,OPEN,0
557075.967,1,0,0,1.000,1.000,0.992,-90.00,180.00,0.00,OPEN,0
557075.977,1,0,0,1.000,1.000,0.992,-90.00,180.00,0.00,OPEN,0
557075.988,1,0,0,1.000,1.000,0.992,-90.00,180.00,0.00,OPEN,0
557075.998,1,0,0,1.000,1.000,0.995,-90.00,180.00,0.00,OPEN,0
557076.009,1,0,0,1.000,1.000,0.995,-90.00,180.00,0.00,OPEN,0
557076.019,1,0,0,1.000,1.000,0.995,-90.00,180.00,0.00,OPEN,0
557076.030,1,0,0,1.000,1.000,0.995,-90.00,180.00,0.00,OPEN,0
557076.040,1,0,0,1.000,1.000,0.995,-90.00,180.00,0.00,OPEN,0
557076.051,1,0,0,1.000,1.000,0.996,-90.00,180.00,0.00,OPEN,0
557076.062,1,0,0,1.000,1.000,0.996,-90.00,180.00,0.00,OPEN,0
557076.073,1,0,0,1.000,1.000,0.996,-90.00,180.00,0.00,OPEN,0
557076.083,1,0,0,1.000,1.000,0.996,-90.00,180.00,0.00,OPEN,0
557076.094,1,0,0,1.000,1.000,0.998,-90.00,180.00,0.00,OPEN,0
557076.104,1,0,0,1.000,1.000,0.998,-90.00,180.00,0.00,OPEN,0
557076.114,1,0,0,1.000,1.000,0.998,-90.00,180.00,0.00,OPEN,0
557076.125,1,0,0,1.000,1.000,0.998,-90.00,180.00,0.00,OPEN,0
557076.135,1,0,0,1.000,1.000,0.998,-90.00,180.00,0.00,OPEN,0
557076.146,1,0,0,1.000,1.000,0.997,-90.00,180.00,0.00,OPEN,0
557076.156,1,0,0,1.000,1.000,0.997,-90.00,180.00,0.00,OPEN,0
557076.167,1,0,0,1.000,1.000,0.997,-90.00,180.00,0.00,OPEN,0
557076.177,1,0,0,1.000,1.000,0.997,-90.00,180.00,0.00,OPEN,0
557076.188,1,0,0,1.000,1.000,0.997,-90.00,180.00,0.00,OPEN,0
557076.199,1,0,0,1.000,1.000,0.996,-90.00,180.00,0.00,OPEN,0
557076.209,1,0,0,1.000,1.000,0.996,-90.00,180.00,0.00,OPEN,0
557076.220,1,0,0,1.000,1.000,0.996,-90.00,180.00,0.00,OPEN,0
557076.230,1,0,0,1.000,1.000,0.996,-90.00,180.00,0.00,OPEN,0
557076.241,1,0,0,1.000,1.000,0.996,-90.00,180.00,0.00,OPEN,0
557076.251,1,0,0,1.000,1.000,0.993,-90.00,180.00,0.00,OPEN,0
557076.262,1,0,0,1.000,1.000,0.993,-90.00,180.00,0.00,OPEN,0
557076.272,1,0,0,1.000,1.000,0.993,-90.00,180.00,0.00,OPEN,0
557076.283,1,0,0,1.000,1.000,0.993,-90.00,180.00,0.00,OPEN,0
557076.294,1,0,0,1.000,1.000,0.993,-90.00,180.00,0.00,OPEN,0
557076.304,1,0,0,1.000,1.000,0.993,-90.00,180.00,0.00,OPEN,0
557076.315,1,0,0,1.000,1.000,0.993,-90.00,180.00,0.00,OPEN,0
557076.325,1,0,0,1.000,1.000,0.993,-90.00,180.00,0.00,OPEN,0
557076.336,1,0,0,1.000,1.000,0.993,-90.00,180.00,0.00,OPEN,0
557076.346,1,0,0,1.000,1.000,0.990,-90.00,180.00,0.00,OPEN,0
557076.357,1,0,0,1.000,1.000,0.990,-90.00,180.00,0.00,OPEN,0
557076.367,1,0,0,1.000,1.000,0.990,-90.00,180.00,0.00,OPEN,0
557076.378,1,0,0,1.000,1.000,0.990,-90.00,180.00,0.00,OPEN,0
557076.388,1,0,0,1.000,1.000,0.990,-90.00,180.00,0.00,OPEN,0
557076.399,1,0,0,1.000,1.000,0.985,-90.00,180.00,0.00,OPEN,0
557076.409,1,0,0,1.000,1.000,0.985,-90.00,180.00,0.00,OPEN,0
557076.420,1,0,0,1.000,1.000,0.985,-90.00,180.00,0.00,OPEN,0
557076.430,1,0,0,1.000,1.000,0.985,-90.00,180.00,0.00,OPEN,0
557076.441,1,0,0,1.000,1.000,0.985,-90.00,180.00,0.00,OPEN,0
557076.451,1,0,0,1.000,1.000,0.978,-90.00,180.00,0.00,OPEN,0
557076.462,1,0,0,1.000,1.000,0.978,-90.00,180.00,0.00,OPEN,0
557076.473,1,0,0,1.000,1.000,0.978,-90.00,180.00,0.00,OPEN,0
557076.483,1,0,0,1.000,1.000,0.978,-90.00,180.00,0.00,OPEN,0
557076.494,1,0,0,1.000,1.000,0.974,-90.00,180.00,0.00,OPEN,0
557076.504,1,0,0,1.000,1.000,0.974,-90.00,180.00,0.00,OPEN,0
557076.514,1,0,0,1.000,1.000,0.974,-90.00,180.00,0.00,OPEN,0
557076.525,1,0,0,1.000,1.000,0.974,-90.00,180.00,0.00,OPEN,0
557076.536,1,0,0,1.000,1.000,0.974,-90.00,180.00,0.00,OPEN,0
557076.546,1,0,0,1.000,1.000,0.978,-90.00,180.00,0.00,OPEN,0
557076.557,1,0,0,1.000,1.000,0.978,-90.00,180.00,0.00,OPEN,0
557076.567,1,0,0,1.000,1.000,0.978,-90.00,180.00,0.00,OPEN,0
557076.578,1,0,0,1.000,1.000,0.978,-90.00,180.00,0.00,OPEN,0
557076.589,1,0,0,1.000,1.000,0.978,-90.00,180.00,0.00,OPEN,0
557076.599,1,0,0,1.000,1.000,0.993,-90.00,180.00,0.00,OPEN,0
557076.610,1,0,0,1.000,1.000,0.993,-90.00,180.00,0.00,OPEN,0
557076.621,1,0,0,1.000,1.000,0.993,-90.00,180.00,0.00,OPEN,0
557076.631,1,0,0,1.000,1.000,0.993,-90.00,180.00,0.00,OPEN,0
557076.642,1,0,0,1.000,1.000,0.993,-90.00,180.00,0.00,OPEN,0
557076.652,1,0,0,1.000,1.000,0.989,-90.00,180.00,0.00,OPEN,0
557076.663,1,0,0,1.000,1.000,0.989,-90.00,180.00,0.00,OPEN,0
557076.673,1,0,0,1.000,1.000,0.989,-90.00,180.00,0.00,OPEN,0
557076.683,1,0,0,1.000,1.000,0.989,-90.00,180.00,0.00,OPEN,0
557076.694,1,0,0,1.000,1.000,0.990,-90.00,180.00,0.00,OPEN,0
557076.704,1,0,0,1.000,1.000,0.990,-90.00,180.00,0.00,OPEN,0
557076.715,1,0,0,1.000,1.000,0.990,-90.00,180.00,0.00,OPEN,0
557076.726,1,0,0,1.000,1.000,0.990,-90.00,180.00,0.00,OPEN,0
557076.736,1,0,0,1.000,1.000,0.990,-90.00,180.00,0.00,OPEN,0
557076.747,1,0,0,1.000,1.000,0.988,-90.00,180.00,0.00,OPEN,0
557076.758,1,0,0,1.000,1.000,0.988,-90.00,180.00,0.00,OPEN,0
557076.768,1,0,0,1.000,1.000,0.988,-90.00,180.00,0.00,OPEN,0
557076.779,1,0,0,1.000,1.000,0.988,-90.00,180.00,0.00,OPEN,0
557076.789,1,0,0,1.000,1.000,0.988,-90.00,180.00,0.00,OPEN,0
557076.800,1,0,0,1.000,1.000,0.985,-90.00,180.00,0.00,OPEN,0
557076.811,1,0,0,1.000,1.000,0.985,-90.00,180.00,0.00,OPEN,0
557076.821,1,0,0,1.000,1.000,0.985,-90.00,180.00,0.00,OPEN,0
557076.832,1,0,0,1.000,1.000,0.985,-90.00,180.00,0.00,OPEN,0
557076.843,1,0,0,1.000,1.000,0.922,-90.00,180.00,0.00,OPEN,0
557076.853,1,0,0,1.000,1.000,0.922,-90.00,180.00,0.00,OPEN,0
557076.864,1,0,0,1.000,1.000,0.922,-90.00,180.00,0.00,OPEN,0
557076.874,1,0,0,1.000,1.000,0.922,-90.00,180.00,0.00,OPEN,0
557076.885,1,0,0,1.000,1.000,0.922,-90.00,180.00,0.00,OPEN,0
557076.896,1,0,0,1.000,1.000,0.858,-90.00,180.00,0.00,OPEN,0
557076.907,1,0,0,1.000,1.000,0.858,-90.00,180.00,0.00,OPEN,0
557076.918,1,0,0,1.000,1.000,0.858,-90.00,180.00,0.00,OPEN,0
557076.928,1,0,0,1.000,1.000,0.858,-90.00,180.00,0.00,OPEN,0
557076.939,1,0,0,1.000,1.000,0.858,-90.00,180.00,0.00,OPEN,0
557076.949,1,0,0,1.000,1.000,0.911,-90.00,180.00,0.00,OPEN,0
557076.960,1,0,0,1.000,1.000,0.911,-90.00,180.00,0.00,OPEN,0
557076.971,1,0,0,1.000,1.000,0.911,-90.00,180.00,0.00,OPEN,0
557076.981,1,0,0,1.000,1.000,0.911,-90.00,180.00,0.00,OPEN,0
557076.992,1,0,0,1.000,1.000,0.911,-90.00,180.00,0.00,OPEN,0
557077.002,1,0,0,1.000,1.000,0.914,-90.00,180.00,0.00,OPEN,0
557077.013,1,0,0,1.000,1.000,0.914,-90.00,180.00,0.00,OPEN,0
557077.023,1,0,0,1.000,1.000,0.914,-90.00,180.00,0.00,OPEN,0
557077.034,1,0,0,1.000,1.000,0.914,-90.00,180.00,0.00,OPEN,0
557077.045,1,0,0,1.000,1.000,0.912,-90.00,180.00,0.00,OPEN,0
557077.056,1,0,0,1.000,1.000,0.912,-90.00,180.00,0.00,OPEN,0
557077.066,1,0,0,1.000,1.000,0.912,-90.00,180.00,0.00,OPEN,0
557077.077,1,0,0,1.000,1.000,0.912,-90.00,180.00,0.00,OPEN,0
557077.088,1,0,0,1.000,1.000,0.912,-90.00,180.00,0.00,OPEN,0
557077.098,1,0,0,1.000,1.000,0.868,-90.00,180.00,0.00,OPEN,0
557077.109,1,0,0,1.000,1.000,0.868,-90.00,180.00,0.00,OPEN,0
557077.119,1,0,0,1.000,1.000,0.868,-90.00,180.00,0.00,OPEN,0
557077.129,1,0,0,1.000,1.000,0.868,-90.00,180.00,0.00,OPEN,0
557077.140,1,0,0,1.000,1.000,0.868,-90.00,180.00,0.00,OPEN,0
557077.151,1,0,0,1.000,1.000,0.875,-90.00,180.00,0.00,OPEN,0
557077.161,1,0,0,1.000,1.000,0.875,-90.00,180.00,0.00,OPEN,0
557077.172,1,0,0,1.000,1.000,0.875,-90.00,180.00,0.00,OPEN,0
557077.183,1,0,0,1.000,1.000,0.875,-90.00,180.00,0.00,OPEN,0
557077.193,1,0,0,1.000,1.000,0.970,-90.00,180.00,0.00,OPEN,0
557077.204,1,0,0,1.000,1.000,0.970,-90.00,180.00,0.00,OPEN,0
557077.215,1,0,0,1.000,1.000,0.970,-90.00,180.00,0.00,OPEN,0
557077.225,1,0,0,1.000,1.000,0.970,-90.00,180.00,0.00,OPEN,0
557077.236,1,0,0,1.000,1.000,0.970,-90.00,180.00,0.00,OPEN,0
557077.246,1,0,0,1.000,1.000,0.975,-90.00,180.00,0.00,OPEN,0
557077.256,1,0,0,1.000,1.000,0.975,-90.00,180.00,0.00,OPEN,0
557077.267,1,0,0,1.000,1.000,0.975,-90.00,180.00,0.00,OPEN,0
557077.277,1,0,0,1.000,1.000,0.975,-90.00,180.00,0.00,OPEN,0
557077.288,1,0,0,1.000,1.000,0.975,-90.00,180.00,0.00,OPEN,0
557077.299,1,0,0,1.000,1.000,0.989,-90.00,180.00,0.00,OPEN,0
557077.309,1,0,0,1.000,1.000,0.989,-90.00,180.00,0.00,OPEN,0
557077.319,1,0,0,1.000,1.000,0.989,-90.00,180.00,0.00,OPEN,0
557077.330,1,0,0,1.000,1.000,0.989,-90.00,180.00,0.00,OPEN,0
557077.341,1,0,0,1.000,1.000,0.989,-90.00,180.00,0.00,OPEN,0
557077.351,1,0,0,1.000,1.000,0.997,-90.00,180.00,0.00,OPEN,0
557077.362,1,0,0,1.000,1.000,0.997,-90.00,180.00,0.00,OPEN,0
557077.373,1,0,0,1.000,1.000,0.997,-90.00,180.00,0.00,OPEN,0
557077.383,1,0,0,1.000,1.000,0.997,-90.00,180.00,0.00,OPEN,0
557077.394,1,0,0,1.000,1.000,0.997,-90.00,180.00,0.00,OPEN,0
557077.405,1,0,0,1.000,1.000,0.997,-90.00,180.00,0.00,OPEN,0
557077.415,1,0,0,1.000,1.000,0.997,-90.00,180.00,0.00,OPEN,0
557077.425,1,0,0,1.000,1.000,0.997,-90.00,180.00,0.00,OPEN,0
557077.436,1,0,0,1.000,1.000,0.997,-90.00,180.00,0.00,OPEN,0
557077.447,1,0,0,1.000,1.000,0.997,-90.00,180.00,0.00,OPEN,0
557077.457,1,0,0,1.000,1.000,0.997,-90.00,180.00,0.00,OPEN,0
557077.467,1,0,0,1.000,1.000,0.997,-90.00,180.00,0.00,OPEN,0
557077.478,1,0,0,1.000,1.000,0.997,-90.00,180.00,0.00,OPEN,0
557077.488,1,0,0,1.000,1.000,0.997,-90.00,180.00,0.00,OPEN,0
557077.499,1,0,0,1.000,1.000,0.995,-90.00,180.00,0.00,OPEN,0
557077.509,1,0,0,1.000,1.000,0.995,-90.00,180.00,0.00,OPEN,0
557077.520,1,0,0,1.000,1.000,0.995,-90.00,180.00,0.00,OPEN,0
557077.531,1,0,0,1.000,1.000,0.995,-90.00,180.00,0.00,OPEN,0
557077.541,1,0,0,1.000,1.000,0.995,-90.00,180.00,0.00,OPEN,0
557077.552,1,0,0,1.000,1.000,0.992,-90.00,180.00,0.00,OPEN,0
557077.562,1,0,0,1.000,1.000,0.992,-90.00,180.00,0.00,OPEN,0
557077.573,1,0,0,1.000,1.000,0.992,-90.00,180.00,0.00,OPEN,0
557077.583,1,0,0,1.000,1.000,0.992,-90.00,180.00,0.00,OPEN,0
557077.593,1,0,0,1.000,1.000,0.988,-90.00,180.00,0.00,OPEN,0
557077.604,1,0,0,1.000,1.000,0.988,-90.00,180.00,0.00,OPEN,0
557077.615,1,0,0,1.000,1.000,0.988,-90.00,180.00,0.00,OPEN,0
557077.625,1,0,0,1.000,1.000,0.988,-90.00,180.00,0.00,OPEN,0
557077.636,1,0,0,1.000,1.000,0.988,-90.00,180.00,0.00,OPEN,0
557077.647,1,0,0,1.000,1.000,0.987,-90.00,180.00,0.00,OPEN,0
557077.657,1,0,0,1.000,1.000,0.987,-90.00,180.00,0.00,OPEN,0
557077.668,1,0,0,1.000,1.000,0.987,-90.00,180.00,0.00,OPEN,0
557077.678,1,0,0,1.000,1.000,0.987,-90.00,180.00,0.00,OPEN,0
557077.689,1,0,0,1.000,1.000,0.987,-90.00,180.00,0.00,OPEN,0
557077.699,1,0,0,1.000,1.000,0.978,-90.00,180.00,0.00,OPEN,0
557077.710,1,0,0,1.000,1.000,0.978,-90.00,180.00,0.00,OPEN,0
557077.720,1,0,0,1.000,1.000,0.978,-90.00,180.00,0.00,OPEN,0
557077.731,1,0,0,1.000,1.000,0.978,-90.00,180.00,0.00,OPEN,0
557077.742,1,0,0,1.000,1.000,0.978,-90.00,180.00,0.00,OPEN,0
557077.752,1,0,0,1.000,1.000,0.974,-90.00,180.00,0.00,OPEN,0
557077.763,1,0,0,1.000,1.000,0.974,-90.00,180.00,0.00,OPEN,0
557077.773,1,0,0,1.000,1.000,0.974,-90.00,180.00,0.00,OPEN,0
557077.784,1,0,0,1.000,1.000,0.974,-90.00,180.00,0.00,OPEN,0
557077.794,1,0,0,1.000,1.000,0.980,-90.00,180.00,0.00,OPEN,0
557077.805,1,0,0,1.000,1.000,0.980,-90.00,180.00,0.00,OPEN,0
557077.816,1,0,0,1.000,1.000,0.980,-90.00,180.00,0.00,OPEN,0
557077.827,1,0,0,1.000,1.000,0.980,-90.00,180.00,0.00,OPEN,0
557077.837,1,0,0,1.000,1.000,0.980,-90.00,180.00,0.00,OPEN,0
557077.848,1,0,0,1.000,1.000,0.985,-90.00,180.00,0.00,OPEN,0
557077.858,1,0,0,1.000,1.000,0.985,-90.00,180.00,0.00,OPEN,0
557077.869,1,0,0,1.000,1.000,0.985,-90.00,180.00,0.00,OPEN,0
557077.880,1,0,0,1.000,1.000,0.985,-90.00,180.00,0.00,OPEN,0
557077.890,1,0,0,1.000,1.000,0.985,-90.00,180.00,0.00,OPEN,0
557077.901,1,0,0,1.000,1.000,0.993,-90.00,180.00,0.00,OPEN,0
557077.911,1,0,0,1.000,1.000,0.993,-90.00,180.00,0.00,OPEN,0
557077.922,1,0,0,1.000,1.000,0.993,-90.00,180.00,0.00,OPEN,0
557077.932,1,0,0,1.000,1.000,0.993,-90.00,180.00,0.00,OPEN,0
557077.943,1,0,0,1.000,1.000,0.992,-90.00,180.00,0.00,OPEN,0
557077.953,1,0,0,1.000,1.000,0.992,-90.00,180.00,0.00,OPEN,0
557077.964,1,0,0,1.000,1.000,0.992,-90.00,180.00,0.00,OPEN,0
557077.974,1,0,0,1.000,1.000,0.992,-90.00,180.00,0.00,OPEN,0
557077.985,1,0,0,1.000,1.000,0.992,-90.00,180.00,0.00,OPEN,0
557077.996,1,0,0,1.000,1.000,0.990,-90.00,180.00,0.00,OPEN,0
557078.007,1,0,0,1.000,1.000,0.990,-90.00,180.00,0.00,OPEN,0
557078.017,1,0,0,1.000,1.000,0.990,-90.00,180.00,0.00,OPEN,0
557078.028,1,0,0,1.000,1.000,0.990,-90.00,180.00,0.00,OPEN,0
557078.038,1,0,0,1.000,1.000,0.990,-90.00,180.00,0.00,OPEN,0
557078.049,1,0,0,1.000,1.000,0.988,-90.00,180.00,0.00,OPEN,0
557078.060,1,0,0,1.000,1.000,0.988,-90.00,180.00,0.00,OPEN,0
557078.071,1,0,0,1.000,1.000,0.988,-90.00,180.00,0.00,OPEN,0
557078.081,1,0,0,1.000,1.000,0.988,-90.00,180.00,0.00,OPEN,0
557078.092,1,0,0,1.000,1.000,0.988,-90.00,180.00,0.00,OPEN,0
557078.102,1,0,0,1.000,1.000,0.989,-90.00,180.00,0.00,OPEN,0
557078.113,1,0,0,1.000,1.000,0.989,-90.00,180.00,0.00,OPEN,0
557078.124,1,0,0,1.000,1.000,0.989,-90.00,180.00,0.00,OPEN,0
557078.135,1,0,0,1.000,1.000,0.989,-90.00,180.00,0.00,OPEN,0
557078.145,1,0,0,1.000,1.000,0.985,-90.00,180.00,0.00,OPEN,0
557078.156,1,0,0,1.000,1.000,0.985,-90.00,180.00,0.00,OPEN,0
557078.167,1,0,0,1.000,1.000,0.985,-90.00,180.00,0.00,OPEN,0
557078.178,1,0,0,1.000,1.000,0.985,-90.00,180.00,0.00,OPEN,0
557078.188,1,0,0,1.000,1.000,0.985,-90.00,180.00,0.00,OPEN,0
557078.199,1,0,0,1.000,1.000,0.986,-90.00,180.00,0.00,OPEN,0
557078.210,1,0,0,1.000,1.000,0.986,-90.00,180.00,0.00,OPEN,0
557078.221,1,0,0,1.000,1.000,0.986,-90.00,180.00,0.00,OPEN,0
557078.231,1,0,0,1.000,1.000,0.986,-90.00,180.00,0.00,OPEN,0
557078.242,1,0,0,1.000,1.000,0.984,-90.00,180.00,0.00,OPEN,0
557078.253,1,0,0,1.000,1.000,0.984,-90.00,180.00,0.00,OPEN,0
557078.263,1,0,0,1.000,1.000,0.984,-90.00,180.00,0.00,OPEN,0
557078.274,1,0,0,1.000,1.000,0.984,-90.00,180.00,0.00,OPEN,0
557078.284,1,0,0,1.000,1.000,0.984,-90.00,180.00,0.00,OPEN,0
557078.295,1,0,0,1.000,1.000,0.984,-90.00,180.00,0.00,OPEN,0
557078.306,1,0,0,1.000,1.000,0.984,-90.00,180.00,0.00,OPEN,0
557078.316,1,0,0,1.000,1.000,0.984,-90.00,180.00,0.00,OPEN,0
557078.327,1,0,0,1.000,1.000,0.984,-90.00,180.00,0.00,OPEN,0
557078.337,1,0,0,1.000,1.000,0.984,-90.00,180.00,0.00,OPEN,0
557078.348,1,0,0,1.000,1.000,0.985,-90.00,180.00,0.00,OPEN,0
557078.358,1,0,0,1.000,1.000,0.985,-90.00,180.00,0.00,OPEN,0
557078.369,1,0,0,1.000,1.000,0.985,-90.00,180.00,0.00,OPEN,0
557078.379,1,0,0,1.000,1.000,0.985,-90.00,180.00,0.00,OPEN,0
557078.390,1,0,0,1.000,1.000,0.985,-90.00,180.00,0.00,OPEN,0
557078.400,1,0,0,1.000,1.000,0.985,-90.00,180.00,0.00,OPEN,0
557078.410,1,0,0,1.000,1.000,0.985,-90.00,180.00,0.00,OPEN,0
557078.421,1,0,0,1.000,1.000,0.985,-90.00,180.00,0.00,OPEN,0
557078.432,1,0,0,1.000,1.000,0.985,-90.00,180.00,0.00,OPEN,0
557078.442,1,0,0,1.000,1.000,0.985,-90.00,180.00,0.00,OPEN,0
557078.453,1,0,0,1.000,1.000,0.985,-90.00,180.00,0.00,OPEN,0
557078.464,1,0,0,1.000,1.000,0.985,-90.00,180.00,0.00,OPEN,0
557078.474,1,0,0,1.000,1.000,0.985,-90.00,180.00,0.00,OPEN,0
557078.484,1,0,0,1.000,1.000,0.985,-90.00,180.00,0.00,OPEN,0
557078.495,1,0,0,1.000,1.000,0.983,-90.00,180.00,0.00,OPEN,0
557078.505,1,0,0,1.000,1.000,0.983,-90.00,180.00,0.00,OPEN,0
557078.515,1,0,0,1.000,1.000,0.983,-90.00,180.00,0.00,OPEN,0
557078.526,1,0,0,1.000,1.000,0.983,-90.00,180.00,0.00,OPEN,0
557078.537,1,0,0,1.000,1.000,0.983,-90.00,180.00,0.00,OPEN,0
557078.547,1,0,0,1.000,1.000,0.986,-90.00,180.00,0.00,OPEN,0
557078.558,1,0,0,1.000,1.000,0.986,-90.00,180.00,0.00,OPEN,0
557078.568,1,0,0,1.000,1.000,0.986,-90.00,180.00,0.00,OPEN,0
557078.579,1,0,0,1.000,1.000,0.986,-90.00,180.00,0.00,OPEN,0
557078.590,1,0,0,1.000,1.000,0.986,-90.00,180.00,0.00,OPEN,0
557078.601,1,0,0,1.000,1.000,0.986,-90.00,180.00,0.00,OPEN,0
557078.611,1,0,0,1.000,1.000,0.986,-90.00,180.00,0.00,OPEN,0
557078.621,1,0,0,1.000,1.000,0.986,-90.00,180.00,0.00,OPEN,0
557078.632,1,0,0,1.000,1.000,0.986,-90.00,180.00,0.00,OPEN,0
557078.642,1,0,0,1.000,1.000,0.982,-90.00,180.00,0.00,OPEN,0
557078.653,1,0,0,1.000,1.000,0.982,-90.00,180.00,0.00,OPEN,0
557078.664,1,0,0,1.000,1.000,0.982,-90.00,180.00,0.00,OPEN,0
557078.674,1,0,0,1.000,1.000,0.982,-90.00,180.00,0.00,OPEN,0
557078.685,1,0,0,1.000,1.000,0.982,-90.00,180.00,0.00,OPEN,0
557078.695,1,0,0,1.000,1.000,0.985,-90.00,180.00,0.00,OPEN,0
557078.705,1,0,0,1.000,1.000,0.985,-90.00,180.00,0.00,OPEN,0
557078.716,1,0,0,1.000,1.000,0.985,-90.00,180.00,0.00,OPEN,0
557078.726,1,0,0,1.000,1.000,0.985,-90.00,180.00,0.00,OPEN,0
557078.736,1,0,0,1.000,1.000,0.985,-90.00,180.00,0.00,OPEN,0
557078.747,1,0,0,1.000,1.000,0.987,-90.00,180.00,0.00,OPEN,0
557078.758,1,0,0,1.000,1.000,0.987,-90.00,180.00,0.00,OPEN,0
557078.768,1,0,0,1.000,1.000,0.987,-90.00,180.00,0.00,OPEN,0
557078.779,1,0,0,1.000,1.000,0.987,-90.00,180.00,0.00,OPEN,0
557078.789,1,0,0,1.000,1.000,0.987,-90.00,180.00,0.00,OPEN,0
557078.800,1,0,0,1.000,1.000,0.990,-90.00,180.00,0.00,OPEN,0
557078.810,1,0,0,1.000,1.000,0.990,-90.00,180.00,0.00,OPEN,0
557078.821,1,0,0,1.000,1.000,0.990,-90.00,180.00,0.00,OPEN,0
557078.832,1,0,0,1.000,1.000,0.990,-90.00,180.00,0.00,OPEN,0
557078.842,1,0,0,1.000,1.000,0.983,-90.00,180.00,0.00,OPEN,0
557078.853,1,0,0,1.000,1.000,0.983,-90.00,180.00,0.00,OPEN,0
557078.864,1,0,0,1.000,1.000,0.983,-90.00,180.00,0.00,OPEN,0
557078.874,1,0,0,1.000,1.000,0.983,-90.00,180.00,0.00,OPEN,0
557078.885,1,0,0,1.000,1.000,0.983,-90.00,180.00,0.00,OPEN,0
557078.895,1,0,0,1.000,1.000,0.981,-90.00,180.00,0.00,OPEN,0
557078.906,1,0,0,1.000,1.000,0.981,-90.00,180.00,0.00,OPEN,0
557078.916,1,0,0,1.000,1.000,0.981,-90.00,180.00,0.00,OPEN,0
557078.926,1,0,0,1.000,1.000,0.981,-90.00,180.00,0.00,OPEN,0
557078.937,1,0,0,1.000,1.000,0.981,-90.00,180.00,0.00,OPEN,0
557078.948,1,0,0,1.000,1.000,1.000,-90.00,180.00,0.00,OPEN,0
557078.958,1,0,0,1.000,1.000,1.000,-90.00,180.00,0.00,OPEN,0
557078.968,1,0,0,1.000,1.000,1.000,-90.00,180.00,0.00,OPEN,0
557078.979,1,0,0,1.000,1.000,1.000,-90.00,180.00,0.00,OPEN,0
557078.989,1,0,0,1.000,1.000,1.000,-90.00,180.00,0.00,OPEN,0
557079.000,1,0,0,1.000,1.000,1.000,-90.00,180.00,0.00,OPEN,0
557079.010,1,0,0,1.000,1.000,1.000,-90.00,180.00,0.00,OPEN,0
557079.021,1,0,0,1.000,1.000,1.000,-90.00,180.00,0.00,OPEN,0
557079.032,1,0,0,1.000,1.000,1.000,-90.00,180.00,0.00,OPEN,0
557079.042,1,0,0,1.000,1.000,1.000,-90.00,180.00,0.00,OPEN,0
557079.052,1,0,0,1.000,1.000,1.000,-90.00,180.00,0.00,OPEN,0
557079.063,1,0,0,1.000,1.000,1.000,-90.00,180.00,0.00,OPEN,0
557079.073,1,0,0,1.000,1.000,1.000,-90.00,180.00,0.00,OPEN,0
557079.084,1,0,0,1.000,1.000,1.000,-90.00,180.00,0.00,OPEN,0
557079.094,1,0,0,1.000,1.000,1.000,-90.00,180.00,0.00,OPEN,0
557079.105,1,0,0,1.000,1.000,1.000,-90.00,180.00,0.00,OPEN,0
557079.116,1,0,0,1.000,1.000,1.000,-90.00,180.00,0.00,OPEN,0
557079.126,1,0,0,1.000,1.000,1.000,-90.00,180.00,0.00,OPEN,0
557079.138,1,0,0,1.000,1.000,1.000,-90.00,180.00,0.00,OPEN,0
557079.149,1,0,0,1.000,1.000,1.000,-90.00,180.00,0.00,OPEN,0
557079.160,1,0,0,1.000,1.000,1.000,-90.00,180.00,0.00,OPEN,0
557079.170,1,0,0,1.000,1.000,1.000,-90.00,180.00,0.00,OPEN,0
557079.181,1,0,0,1.000,1.000,1.000,-90.00,180.00,0.00,OPEN,0
557079.191,1,0,0,1.000,1.000,1.000,-90.00,180.00,0.00,OPEN,0
557079.202,1,0,0,1.000,1.000,1.000,-90.00,180.00,0.00,OPEN,0
557079.212,1,0,0,1.000,1.000,1.000,-90.00,180.00,0.00,OPEN,0
557079.223,1,0,0,1.000,1.000,1.000,-90.00,180.00,0.00,OPEN,0
557079.234,1,0,0,1.000,1.000,1.000,-90.00,180.00,0.00,OPEN,0
557079.244,1,0,0,1.000,1.000,1.000,-90.00,180.00,0.00,OPEN,0
557079.254,1,0,0,1.000,1.000,1.000,-90.00,180.00,0.00,OPEN,0
557079.265,1,0,0,1.000,1.000,1.000,-90.00,180.00,0.00,OPEN,0
557079.275,1,0,0,1.000,1.000,1.000,-90.00,180.00,0.00,OPEN,0
557079.286,1,0,0,1.000,1.000,1.000,-90.00,180.00,0.00,OPEN,0
557079.297,1,0,0,1.000,1.000,1.000,-90.00,180.00,0.00,OPEN,0
557079.307,1,0,0,1.000,1.000,1.000,-90.00,180.00,0.00,OPEN,0
557079.318,1,0,0,1.000,1.000,1.000,-90.00,180.00,0.00,OPEN,0
557079.328,1,0,0,1.000,1.000,1.000,-90.00,180.00,0.00,OPEN,0
557079.339,1,0,0,1.000,1.000,1.000,-90.00,180.00,0.00,OPEN,0
557079.349,1,0,0,1.000,1.000,1.000,-90.00,180.00,0.00,OPEN,0
557079.360,1,0,0,1.000,1.000,1.000,-90.00,180.00,0.00,OPEN,0
557079.370,1,0,0,1.000,1.000,1.000,-90.00,180.00,0.00,OPEN,0
557079.381,1,0,0,1.000,1.000,1.000,-90.00,180.00,0.00,OPEN,0
557079.392,1,0,0,1.000,1.000,1.000,-90.00,180.00,0.00,OPEN,0
557079.402,1,0,0,1.000,1.000,1.000,-90.00,180.00,0.00,OPEN,0
557079.413,1,0,0,1.000,1.000,1.000,-90.00,180.00,0.00,OPEN,0
557079.423,1,0,0,1.000,1.000,1.000,-90.00,180.00,0.00,OPEN,0
557079.434,1,0,0,1.000,1.000,1.000,-90.00,180.00,0.00,OPEN,0
557079.444,1,0,0,1.000,1.000,1.000,-90.00,180.00,0.00,OPEN,0
557079.455,1,0,0,1.000,1.000,1.000,-90.00,180.00,0.00,OPEN,0
557079.465,1,0,0,1.000,1.000,1.000,-90.00,180.00,0.00,OPEN,0
557079.476,1,0,0,1.000,1.000,1.000,-90.00,180.00,0.00,OPEN,0
557079.486,1,0,0,1.000,1.000,1.000,-90.00,180.00,0.00,OPEN,0
557079.496,1,0,0,1.000,1.000,1.000,-90.00,180.00,0.00,OPEN,0
557079.507,1,0,0,1.000,1.000,1.000,-90.00,180.00,0.00,OPEN,0
557079.517,1,0,0,1.000,1.000,1.000,-90.00,180.00,0.00,OPEN,0
557079.528,1,0,0,1.000,1.000,1.000,-90.00,180.00,0.00,OPEN,0
557079.539,1,0,0,1.000,1.000,1.000,-90.00,180.00,0.00,OPEN,0
557079.549,1,0,0,1.000,1.000,1.000,-90.00,180.00,0.00,OPEN,0
557079.560,1,0,0,1.000,1.000,1.000,-90.00,180.00,0.00,OPEN,0
557079.570,1,0,0,1.000,1.000,1.000,-90.00,180.00,0.00,OPEN,0
557079.580,1,0,0,1.000,1.000,1.000,-90.00,180.00,0.00,OPEN,0
557079.591,1,0,0,1.000,1.000,1.000,-90.00,180.00,0.00,OPEN,0
557079.601,1,0,0,1.000,1.000,1.000,-90.00,180.00,0.00,OPEN,0
557079.612,1,0,0,1.000,1.000,1.000,-90.00,180.00,0.00,OPEN,0
557079.622,1,0,0,1.000,1.000,1.000,-90.00,180.00,0.00,OPEN,0
557079.633,1,0,0,1.000,1.000,1.000,-90.00,180.00,0.00,OPEN,0
557079.643,1,0,0,1.000,1.000,1.000,-90.00,180.00,0.00,OPEN,0
557079.654,1,0,0,1.000,1.000,1.000,-90.00,180.00,0.00,OPEN,0
557079.664,1,0,0,1.000,1.000,1.000,-90.00,180.00,0.00,OPEN,0
557079.674,1,0,0,1.000,1.000,1.000,-90.00,180.00,0.00,OPEN,0
557079.685,1,0,0,1.000,1.000,1.000,-90.00,180.00,0.00,OPEN,0
557079.695,1,0,0,1.000,1.000,1.000,-90.00,180.00,0.00,OPEN,0
557079.706,1,0,0,1.000,1.000,1.000,-90.00,180.00,0.00,OPEN,0
557079.716,1,0,0,1.000,1.000,1.000,-90.00,180.00,0.00,OPEN,0
557079.727,1,0,0,1.000,1.000,1.000,-90.00,180.00,0.00,OPEN,0
557079.737,1,0,0,1.000,1.000,1.000,-90.00,180.00,0.00,OPEN,0
557079.748,1,0,0,1.000,1.000,1.000,-90.00,180.00,0.00,OPEN,0
557079.758,1,0,0,1.000,1.000,1.000,-90.00,180.00,0.00,OPEN,0
557079.768,1,0,0,1.000,1.000,1.000,-90.00,180.00,0.00,OPEN,0
557079.779,1,0,0,1.000,1.000,1.000,-90.00,180.00,0.00,OPEN,0
557079.789,1,0,0,1.000,1.000,1.000,-90.00,180.00,0.00,OPEN,0
557079.800,1,0,0,1.000,1.000,1.000,-90.00,180.00,0.00,OPEN,0
557079.810,1,0,0,1.000,1.000,1.000,-90.00,180.00,0.00,OPEN,0
557079.821,1,0,0,1.000,1.000,1.000,-90.00,180.00,0.00,OPEN,0
557079.831,1,0,0,1.000,1.000,1.000,-90.00,180.00,0.00,OPEN,0
557079.841,1,0,0,1.000,1.000,1.000,-90.00,180.00,0.00,OPEN,0
557079.852,1,1,1,1.000,1.000,1.000,0.00,90.00,0.00,OPEN,0
557079.863,1,1,1,1.000,1.000,1.000,0.00,90.00,0.00,OPEN,0
557079.873,1,1,1,1.000,1.000,1.000,0.00,90.00,0.00,OPEN,0
557079.884,1,1,1,1.000,1.000,1.000,0.00,90.00,0.00,OPEN,0
557079.894,1,1,1,1.000,1.000,0.715,0.00,90.00,0.00,OPEN,0
557079.905,1,1,1,1.000,1.000,0.715,0.00,90.00,0.00,OPEN,0
557079.915,1,1,1,1.000,1.000,0.715,0.00,90.00,0.00,OPEN,0
557079.926,1,1,1,1.000,1.000,0.715,0.00,90.00,0.00,OPEN,0
557079.936,1,1,1,1.000,1.000,0.715,0.00,90.00,0.00,OPEN,0
557079.946,1,1,1,1.000,1.000,0.898,0.00,90.00,0.00,OPEN,0
557079.957,1,1,1,1.000,1.000,0.898,0.00,90.00,0.00,OPEN,0
557079.967,1,1,1,1.000,1.000,0.898,0.00,90.00,0.00,OPEN,0
557079.978,1,1,1,1.000,1.000,0.898,0.00,90.00,0.00,OPEN,0
557079.988,1,1,1,1.000,1.000,0.898,0.00,90.00,0.00,OPEN,0
557079.999,1,1,1,1.000,1.000,0.759,0.00,90.00,0.00,OPEN,0
557080.009,1,1,1,1.000,1.000,0.759,0.00,90.00,0.00,OPEN,0
557080.020,1,1,1,1.000,1.000,0.759,0.00,90.00,0.00,OPEN,0
557080.030,1,1,1,1.000,1.000,0.759,0.00,90.00,0.00,OPEN,0
557080.040,1,1,1,1.000,1.000,0.759,0.00,90.00,0.00,OPEN,0
557080.050,1,1,1,1.000,1.000,1.000,0.00,90.00,0.00,OPEN,0
557080.061,1,1,1,1.000,1.000,1.000,0.00,90.00,0.00,OPEN,0
557080.071,1,1,1,1.000,1.000,1.000,0.00,90.00,0.00,OPEN,0
557080.082,1,1,1,1.000,1.000,1.000,0.00,90.00,0.00,OPEN,0
557080.092,1,1,1,1.000,1.000,0.997,0.00,90.00,0.00,OPEN,0
557080.103,1,1,1,1.000,1.000,0.997,0.00,90.00,0.00,OPEN,0
557080.113,1,1,1,1.000,1.000,0.997,0.00,90.00,0.00,OPEN,0
557080.123,1,1,1,1.000,1.000,0.997,0.00,90.00,0.00,OPEN,0
557080.134,1,1,1,1.000,1.000,0.997,0.00,90.00,0.00,OPEN,0
557080.144,1,1,1,0.996,1.000,1.000,0.00,90.00,0.00,OPEN,0
557080.155,1,1,1,0.996,1.000,1.000,0.00,90.00,0.00,OPEN,0
557080.166,1,1,1,0.996,1.000,1.000,0.00,90.00,0.00,OPEN,0
557080.176,1,1,1,0.996,1.000,1.000,0.00,90.00,0.00,OPEN,0
557080.186,1,1,1,0.996,1.000,1.000,0.00,90.00,0.00,OPEN,0
557080.197,1,1,1,0.830,1.000,1.000,0.00,90.00,0.00,OPEN,0
557080.207,1,1,1,0.830,1.000,1.000,0.00,90.00,0.00,OPEN,0
557080.217,1,1,1,0.830,1.000,1.000,0.00,90.00,0.00,OPEN,0
557080.228,1,1,1,0.830,1.000,1.000,0.00,90.00,0.00,OPEN,0
557080.238,1,1,1,0.830,1.000,1.000,0.00,90.00,0.00,OPEN,0
557080.248,1,1,1,1.000,1.000,1.000,0.00,90.00,0.00,OPEN,0
557080.259,1,1,1,1.000,1.000,1.000,0.00,90.00,0.00,OPEN,0
557080.269,1,1,1,1.000,1.000,1.000,0.00,90.00,0.00,OPEN,0
557080.280,1,1,1,1.000,1.000,1.000,0.00,90.00,0.00,OPEN,0
557080.291,1,1,1,1.000,1.000,1.000,0.00,90.00,0.00,OPEN,0
557080.301,1,0,1,1.000,1.000,1.000,0.00,180.00,0.00,OPEN,0
557080.312,1,0,1,1.000,1.000,1.000,0.00,180.00,0.00,OPEN,0
557080.323,1,0,1,1.000,1.000,1.000,0.00,180.00,0.00,OPEN,0
557080.334,1,0,1,1.000,1.000,1.000,0.00,180.00,0.00,OPEN,0
557080.344,1,0,1,1.000,1.000,1.000,0.00,180.00,0.00,OPEN,0
557080.355,1,0,1,1.000,1.000,1.000,0.00,180.00,0.00,OPEN,0
557080.366,1,0,1,1.000,1.000,1.000,0.00,180.00,0.00,OPEN,0
557080.376,1,0,1,1.000,1.000,1.000,0.00,180.00,0.00,OPEN,0
557080.387,1,0,1,1.000,1.000,1.000,0.00,180.00,0.00,OPEN,0
557080.397,1,0,1,1.000,1.000,1.000,0.00,180.00,0.00,OPEN,0
557080.408,1,0,1,1.000,1.000,1.000,0.00,180.00,0.00,OPEN,0
557080.418,1,0,1,1.000,1.000,1.000,0.00,180.00,0.00,OPEN,0
557080.429,1,0,1,1.000,1.000,1.000,0.00,180.00,0.00,OPEN,0
557080.440,1,0,1,1.000,1.000,1.000,0.00,180.00,0.00,OPEN,0
557080.450,1,0,0,1.000,1.000,1.000,-90.00,180.00,0.00,OPEN,0
557080.461,1,0,0,1.000,1.000,1.000,-90.00,180.00,0.00,OPEN,0
557080.471,1,0,0,1.000,1.000,1.000,-90.00,180.00,0.00,OPEN,0
557080.482,1,0,0,1.000,1.000,1.000,-90.00,180.00,0.00,OPEN,0
557080.493,1,0,0,1.000,1.000,1.000,-90.00,180.00,0.00,OPEN,0
557080.503,1,0,0,1.000,1.000,1.000,-90.00,180.00,0.00,OPEN,0
557080.513,1,0,0,1.000,1.000,1.000,-90.00,180.00,0.00,OPEN,0
557080.524,1,0,0,1.000,1.000,1.000,-90.00,180.00,0.00,OPEN,0
557080.534,1,0,0,1.000,1.000,1.000,-90.00,180.00,0.00,OPEN,0
557080.544,1,0,0,1.000,0.842,0.927,-90.00,180.00,0.00,OPEN,0
557080.555,1,0,0,1.000,0.842,0.927,-90.00,180.00,0.00,OPEN,0
557080.565,1,0,0,1.000,0.842,0.927,-90.00,180.00,0.00,OPEN,0
557080.576,1,0,0,1.000,0.842,0.927,-90.00,180.00,0.00,OPEN,0
557080.586,1,0,0,1.000,0.842,0.927,-90.00,180.00,0.00,OPEN,0
557080.597,0,0,0,1.000,1.000,0.582,-90.00,180.00,0.00,OPEN,0
557080.607,0,0,0,1.000,1.000,0.582,-90.00,180.00,0.00,OPEN,0
557080.618,0,0,0,1.000,1.000,0.582,-90.00,180.00,0.00,OPEN,0
557080.629,0,0,0,1.000,1.000,0.582,-90.00,180.00,0.00,OPEN,0
557080.639,0,0,0,1.000,1.000,0.582,-90.00,180.00,0.00,OPEN,0
557080.650,0,0,0,1.000,1.000,0.663,-90.00,180.00,0.00,OPEN,0
557080.660,0,0,0,1.000,1.000,0.663,-90.00,180.00,0.00,OPEN,0
557080.671,0,0,0,1.000,1.000,0.663,-90.00,180.00,0.00,OPEN,0
557080.681,0,0,0,1.000,1.000,0.663,-90.00,180.00,0.00,OPEN,0
557080.691,0,0,0,1.000,1.000,0.663,-90.00,180.00,0.00,OPEN,0
557080.702,0,0,0,1.000,1.000,0.621,-90.00,180.00,0.00,OPEN,0
557080.713,0,0,0,1.000,1.000,0.621,-90.00,180.00,0.00,OPEN,0
557080.724,0,0,0,1.000,1.000,0.621,-90.00,180.00,0.00,OPEN,0
557080.734,0,0,0,1.000,1.000,0.621,-90.00,180.00,0.00,OPEN,0
557080.745,0,0,0,1.000,1.000,0.621,-90.00,180.00,0.00,OPEN,0
557080.755,0,0,0,1.000,1.000,0.621,-90.00,180.00,0.00,OPEN,0
557080.766,0,0,0,1.000,1.000,0.621,-90.00,180.00,0.00,OPEN,0
557080.777,0,0,0,1.000,1.000,0.621,-90.00,180.00,0.00,OPEN,0
557080.787,0,0,0,1.000,1.000,0.621,-90.00,180.00,0.00,OPEN,0
557080.798,0,0,0,1.000,1.000,0.957,-90.00,180.00,0.00,OPEN,0
557080.809,0,0,0,1.000,1.000,0.957,-90.00,180.00,0.00,OPEN,0
557080.819,0,0,0,1.000,1.000,0.957,-90.00,180.00,0.00,OPEN,0
557080.830,0,0,0,1.000,1.000,0.957,-90.00,180.00,0.00,OPEN,0
557080.840,0,0,0,1.000,1.000,0.957,-90.00,180.00,0.00,OPEN,0
557080.851,0,0,0,1.000,1.000,0.968,-90.00,180.00,0.00,OPEN,0
557080.861,0,0,0,1.000,1.000,0.968,-90.00,180.00,0.00,OPEN,0
557080.871,0,0,0,1.000,1.000,0.968,-90.00,180.00,0.00,OPEN,0
557080.882,0,0,0,1.000,1.000,0.968,-90.00,180.00,0.00,OPEN,0
557080.892,0,0,0,1.000,1.000,0.996,-90.00,180.00,0.00,OPEN,0
557080.902,0,0,0,1.000,1.000,0.996,-90.00,180.00,0.00,OPEN,0
557080.913,0,0,0,1.000,1.000,0.996,-90.00,180.00,0.00,OPEN,0
557080.923,0,0,0,1.000,1.000,0.996,-90.00,180.00,0.00,OPEN,0
557080.934,0,0,0,1.000,1.000,0.996,-90.00,180.00,0.00,OPEN,0
557080.944,0,0,0,1.000,1.000,0.998,-90.00,180.00,0.00,OPEN,0
557080.955,0,0,0,1.000,1.000,0.998,-90.00,180.00,0.00,OPEN,0
557080.965,0,0,0,1.000,1.000,0.998,-90.00,180.00,0.00,OPEN,0
557080.976,0,0,0,1.000,1.000,0.998,-90.00,180.00,0.00,OPEN,0
557080.986,0,0,0,1.000,1.000,0.998,-90.00,180.00,0.00,OPEN,0
557080.997,0,0,0,1.000,0.899,1.000,-90.00,180.00,0.00,OPEN,0
557081.007,0,0,0,1.000,0.899,1.000,-90.00,180.00,0.00,OPEN,0
557081.018,0,0,0,1.000,0.899,1.000,-90.00,180.00,0.00,OPEN,0
557081.029,0,0,0,1.000,0.899,1.000,-90.00,180.00,0.00,OPEN,0
557081.039,0,0,0,1.000,0.899,1.000,-90.00,180.00,0.00,OPEN,0
557081.050,0,0,0,1.000,0.771,0.996,-90.00,180.00,0.00,OPEN,0
557081.061,0,0,0,1.000,0.771,0.996,-90.00,180.00,0.00,OPEN,0
557081.071,0,0,0,1.000,0.771,0.996,-90.00,180.00,0.00,OPEN,0
557081.082,0,0,0,1.000,0.771,0.996,-90.00,180.00,0.00,OPEN,0
557081.092,0,0,0,1.000,0.990,1.000,-90.00,180.00,0.00,OPEN,0
557081.103,0,0,0,1.000,0.990,1.000,-90.00,180.00,0.00,OPEN,0
557081.113,0,0,0,1.000,0.990,1.000,-90.00,180.00,0.00,OPEN,0
557081.124,0,0,0,1.000,0.990,1.000,-90.00,180.00,0.00,OPEN,0
557081.135,0,0,0,1.000,0.990,1.000,-90.00,180.00,0.00,OPEN,0
557081.145,0,0,0,1.000,1.000,1.000,-90.00,180.00,0.00,OPEN,0
557081.156,0,0,0,1.000,1.000,1.000,-90.00,180.00,0.00,OPEN,0
557081.167,0,0,0,1.000,1.000,1.000,-90.00,180.00,0.00,OPEN,0
557081.177,0,0,0,1.000,1.000,1.000,-90.00,180.00,0.00,OPEN,0
557081.188,0,0,0,1.000,1.000,1.000,-90.00,180.00,0.00,OPEN,0
557081.198,0,0,0,1.000,0.999,0.974,-90.00,180.00,0.00,OPEN,0
557081.209,0,0,0,1.000,0.999,0.974,-90.00,180.00,0.00,OPEN,0
557081.220,0,0,0,1.000,0.999,0.974,-90.00,180.00,0.00,OPEN,0
557081.230,0,0,0,1.000,0.999,0.974,-90.00,180.00,0.00,OPEN,0
557081.241,0,0,0,1.000,0.999,0.974,-90.00,180.00,0.00,OPEN,0
557081.251,0,0,0,1.000,0.579,0.697,-90.00,180.00,0.00,OPEN,0
557081.261,0,0,0,1.000,0.579,0.697,-90.00,180.00,0.00,OPEN,0
557081.272,0,0,0,1.000,0.579,0.697,-90.00,180.00,0.00,OPEN,0
557081.282,0,0,0,1.000,0.579,0.697,-90.00,180.00,0.00,OPEN,0
557081.293,0,0,0,1.000,0.989,0.891,-90.00,180.00,0.00,OPEN,0
557081.303,0,0,0,1.000,0.989,0.891,-90.00,180.00,0.00,OPEN,0
557081.314,0,0,0,1.000,0.989,0.891,-90.00,180.00,0.00,OPEN,0
557081.324,0,0,0,1.000,0.989,0.891,-90.00,180.00,0.00,OPEN,0
557081.335,0,0,0,1.000,0.989,0.891,-90.00,180.00,0.00,OPEN,0
557081.345,0,0,0,1.000,0.979,0.921,-90.00,180.00,0.00,OPEN,0
557081.356,0,0,0,1.000,0.979,0.921,-90.00,180.00,0.00,OPEN,0
557081.366,0,0,0,1.000,0.979,0.921,-90.00,180.00,0.00,OPEN,0
557081.376,0,0,0,1.000,0.979,0.921,-90.00,180.00,0.00,OPEN,0
557081.387,0,0,0,1.000,0.979,0.921,-90.00,180.00,0.00,OPEN,0
557081.397,0,0,0,1.000,0.809,0.967,-90.00,180.00,0.00,OPEN,0
557081.408,0,0,0,1.000,0.809,0.967,-90.00,180.00,0.00,OPEN,0
557081.418,0,0,0,1.000,0.809,0.967,-90.00,180.00,0.00,OPEN,0
557081.428,0,0,0,1.000,0.809,0.967,-90.00,180.00,0.00,OPEN,0
557081.439,0,0,0,1.000,0.809,0.967,-90.00,180.00,0.00,OPEN,0
557081.450,0,0,1,1.000,0.820,0.995,0.00,180.00,0.00,OPEN,0
557081.460,0,0,1,1.000,0.820,0.995,0.00,180.00,0.00,OPEN,0
557081.471,0,0,1,1.000,0.820,0.995,0.00,180.00,0.00,OPEN,0
557081.481,0,0,1,1.000,0.820,0.995,0.00,180.00,0.00,OPEN,0
557081.492,0,0,1,1.000,1.000,1.000,0.00,180.00,0.00,OPEN,0
557081.503,0,0,1,1.000,1.000,1.000,0.00,180.00,0.00,OPEN,0
557081.513,0,0,1,1.000,1.000,1.000,0.00,180.00,0.00,OPEN,0
557081.523,0,0,1,1.000,1.000,1.000,0.00,180.00,0.00,OPEN,0
557081.534,0,0,1,1.000,1.000,1.000,0.00,180.00,0.00,OPEN,0
557081.544,0,1,1,1.000,1.000,1.000,0.00,90.00,0.00,OPEN,0
557081.555,0,1,1,1.000,1.000,1.000,0.00,90.00,0.00,OPEN,0
557081.565,0,1,1,1.000,1.000,1.000,0.00,90.00,0.00,OPEN,0
557081.576,0,1,1,1.000,1.000,1.000,0.00,90.00,0.00,OPEN,0
557081.586,0,1,1,1.000,1.000,1.000,0.00,90.00,0.00,OPEN,0
557081.597,0,1,1,1.000,1.000,1.000,0.00,90.00,0.00,OPEN,0
557081.607,0,1,1,1.000,1.000,1.000,0.00,90.00,0.00,OPEN,0
557081.617,0,1,1,1.000,1.000,1.000,0.00,90.00,0.00,OPEN,0
557081.628,0,1,1,1.000,1.000,1.000,0.00,90.00,0.00,OPEN,0
557081.638,0,1,1,1.000,1.000,1.000,0.00,90.00,0.00,OPEN,0
557081.649,0,1,1,1.000,1.000,1.000,0.00,90.00,0.00,OPEN,0
557081.659,0,1,1,1.000,1.000,1.000,0.00,90.00,0.00,OPEN,0
557081.670,0,1,1,1.000,1.000,1.000,0.00,90.00,0.00,OPEN,0
557081.680,0,1,1,1.000,1.000,1.000,0.00,90.00,0.00,OPEN,0
557081.690,0,1,1,1.000,1.000,1.000,0.00,90.00,0.00,OPEN,0
557081.701,0,1,0,1.000,1.000,1.000,-90.00,90.00,0.00,OPEN,0
557081.711,0,1,0,1.000,1.000,1.000,-90.00,90.00,0.00,OPEN,0
557081.721,0,1,0,1.000,1.000,1.000,-90.00,90.00,0.00,OPEN,0
557081.732,0,1,0,1.000,1.000,1.000,-90.00,90.00,0.00,OPEN,0
557081.742,0,1,0,1.000,1.000,1.000,-90.00,90.00,0.00,OPEN,0
557081.753,0,1,0,1.000,1.000,1.000,-90.00,90.00,0.00,OPEN,0
557081.764,0,1,0,1.000,1.000,1.000,-90.00,90.00,0.00,OPEN,0
557081.774,0,1,0,1.000,1.000,1.000,-90.00,90.00,0.00,OPEN,0
557081.785,0,1,0,1.000,1.000,1.000,-90.00,90.00,0.00,OPEN,0
557081.795,0,1,0,1.000,1.000,1.000,-90.00,90.00,0.00,OPEN,0
557081.806,0,1,0,1.000,1.000,1.000,-90.00,90.00,0.00,OPEN,0
557081.816,0,1,0,1.000,1.000,1.000,-90.00,90.00,0.00,OPEN,0
557081.827,0,1,0,1.000,1.000,1.000,-90.00,90.00,0.00,OPEN,0
557081.838,0,1,0,1.000,1.000,1.000,-90.00,90.00,0.00,OPEN,0
557081.848,0,0,0,1.000,1.000,0.933,-90.00,180.00,0.00,OPEN,0
557081.859,0,0,0,1.000,1.000,0.933,-90.00,180.00,0.00,OPEN,0
557081.869,0,0,0,1.000,1.000,0.933,-90.00,180.00,0.00,OPEN,0
557081.880,0,0,0,1.000,1.000,0.933,-90.00,180.00,0.00,OPEN,0
557081.891,0,0,0,1.000,1.000,0.933,-90.00,180.00,0.00,OPEN,0
557081.901,0,0,0,1.000,1.000,0.617,-90.00,180.00,0.00,OPEN,0
557081.911,0,0,0,1.000,1.000,0.617,-90.00,180.00,0.00,OPEN,0
557081.922,0,0,0,1.000,1.000,0.617,-90.00,180.00,0.00,OPEN,0
557081.932,0,0,0,1.000,1.000,0.617,-90.00,180.00,0.00,OPEN,0
557081.943,0,0,0,1.000,1.000,1.000,-90.00,180.00,0.00,OPEN,0
557081.954,0,0,0,1.000,1.000,1.000,-90.00,180.00,0.00,OPEN,0
557081.964,0,0,0,1.000,1.000,1.000,-90.00,180.00,0.00,OPEN,0
557081.975,0,0,0,1.000,1.000,1.000,-90.00,180.00,0.00,OPEN,0
557081.985,0,0,0,1.000,1.000,1.000,-90.00,180.00,0.00,OPEN,0
557081.996,0,0,0,1.000,1.000,1.000,-90.00,180.00,0.00,OPEN,0
557082.006,0,0,0,1.000,1.000,1.000,-90.00,180.00,0.00,OPEN,0
557082.016,0,0,0,1.000,1.000,1.000,-90.00,180.00,0.00,OPEN,0
557082.028,0,0,0,1.000,1.000,1.000,-90.00,180.00,0.00,OPEN,0
557082.038,0,0,0,1.000,1.000,1.000,-90.00,180.00,0.00,OPEN,0
557082.048,0,0,0,1.000,1.000,1.000,-90.00,180.00,0.00,OPEN,0
557082.059,0,0,0,1.000,1.000,1.000,-90.00,180.00,0.00,OPEN,0
557082.070,0,0,0,1.000,1.000,1.000,-90.00,180.00,0.00,OPEN,0
557082.080,0,0,0,1.000,1.000,1.000,-90.00,180.00,0.00,OPEN,0
557082.091,0,0,0,1.000,1.000,1.000,-90.00,180.00,0.00,OPEN,0
557082.101,0,0,0,1.000,1.000,1.000,-90.00,180.00,0.00,OPEN,0
557082.112,0,0,0,1.000,1.000,1.000,-90.00,180.00,0.00,OPEN,0
557082.123,0,0,0,1.000,1.000,1.000,-90.00,180.00,0.00,OPEN,0
557082.134,0,0,0,1.000,1.000,1.000,-90.00,180.00,0.00,OPEN,0
557082.144,0,0,0,1.000,1.000,1.000,-90.00,180.00,0.00,OPEN,0
557082.155,0,0,0,1.000,1.000,1.000,-90.00,180.00,0.00,OPEN,0
557082.165,0,0,0,1.000,1.000,1.000,-90.00,180.00,0.00,OPEN,0
557082.176,0,0,0,1.000,1.000,1.000,-90.00,180.00,0.00,OPEN,0
557082.186,0,0,0,1.000,1.000,1.000,-90.00,180.00,0.00,OPEN,0
557082.197,0,0,0,1.000,1.000,1.000,-90.00,180.00,0.00,OPEN,0
557082.207,0,0,0,1.000,1.000,1.000,-90.00,180.00,0.00,OPEN,0
557082.218,0,0,0,1.000,1.000,1.000,-90.00,180.00,0.00,OPEN,0
557082.228,0,0,0,1.000,1.000,1.000,-90.00,180.00,0.00,OPEN,0
557082.239,0,0,0,1.000,1.000,1.000,-90.00,180.00,0.00,OPEN,0
557082.249,0,0,0,1.000,1.000,1.000,-90.00,180.00,0.00,OPEN,0
557082.260,0,0,0,1.000,1.000,1.000,-90.00,180.00,0.00,OPEN,0
557082.271,0,0,0,1.000,1.000,1.000,-90.00,180.00,0.00,OPEN,0
557082.281,0,0,0,1.000,1.000,1.000,-90.00,180.00,0.00,OPEN,0
557082.292,0,0,0,1.000,1.000,1.000,-90.00,180.00,0.00,OPEN,0
557082.302,0,0,0,1.000,1.000,1.000,-90.00,180.00,0.00,OPEN,0
557082.313,0,0,0,1.000,1.000,1.000,-90.00,180.00,0.00,OPEN,0
557082.324,0,0,0,1.000,1.000,1.000,-90.00,180.00,0.00,OPEN,0
557082.334,0,0,0,1.000,1.000,1.000,-90.00,180.00,0.00,OPEN,0
557082.344,0,0,0,1.000,1.000,1.000,-90.00,180.00,0.00,OPEN,0
557082.355,0,0,0,1.000,1.000,1.000,-90.00,180.00,0.00,OPEN,0
557082.366,0,0,0,1.000,1.000,1.000,-90.00,180.00,0.00,OPEN,0
557082.376,0,0,0,1.000,1.000,1.000,-90.00,180.00,0.00,OPEN,0
557082.388,0,0,0,1.000,1.000,1.000,-90.00,180.00,0.00,OPEN,0
557082.399,0,0,0,1.000,0.997,0.997,-90.00,180.00,0.00,OPEN,0
557082.409,0,0,0,1.000,0.997,0.997,-90.00,180.00,0.00,OPEN,0
557082.420,0,0,0,1.000,0.997,0.997,-90.00,180.00,0.00,OPEN,0
557082.430,0,0,0,1.000,0.997,0.997,-90.00,180.00,0.00,OPEN,0
557082.441,0,0,0,1.000,0.997,0.997,-90.00,180.00,0.00,OPEN,0
557082.452,0,0,0,1.000,1.000,1.000,-90.00,180.00,0.00,OPEN,0
557082.463,0,0,0,1.000,1.000,1.000,-90.00,180.00,0.00,OPEN,0
557082.474,0,0,0,1.000,1.000,1.000,-90.00,180.00,0.00,OPEN,0
557082.484,0,0,0,1.000,1.000,1.000,-90.00,180.00,0.00,OPEN,0
557082.495,0,0,0,1.000,1.000,1.000,-90.00,180.00,0.00,OPEN,0
557082.506,0,0,0,1.000,1.000,1.000,-90.00,180.00,0.00,OPEN,0
557082.516,0,0,0,1.000,1.000,1.000,-90.00,180.00,0.00,OPEN,0
557082.527,0,0,0,1.000,1.000,1.000,-90.00,180.00,0.00,OPEN,0
557082.538,0,0,0,1.000,1.000,1.000,-90.00,180.00,0.00,OPEN,0
557082.548,0,0,0,1.000,1.000,1.000,-90.00,180.00,0.00,OPEN,0
557082.558,0,0,0,1.000,1.000,1.000,-90.00,180.00,0.00,OPEN,0
557082.569,0,0,0,1.000,1.000,1.000,-90.00,180.00,0.00,OPEN,0
557082.579,0,0,0,1.000,1.000,1.000,-90.00,180.00,0.00,OPEN,0
557082.590,0,0,0,1.000,1.000,1.000,-90.00,180.00,0.00,OPEN,0
557082.600,0,0,0,1.000,1.000,1.000,-90.00,180.00,0.00,OPEN,0
557082.610,0,0,0,1.000,1.000,1.000,-90.00,180.00,0.00,OPEN,0
557082.621,0,0,0,1.000,1.000,1.000,-90.00,180.00,0.00,OPEN,0
557082.631,0,0,0,1.000,1.000,1.000,-90.00,180.00,0.00,OPEN,0
557082.642,0,0,0,1.000,1.000,1.000,-90.00,180.00,0.00,OPEN,0
557082.653,0,0,0,1.000,1.000,1.000,-90.00,180.00,0.00,OPEN,0
557082.663,0,0,0,1.000,1.000,1.000,-90.00,180.00,0.00,OPEN,0
557082.673,0,0,0,1.000,1.000,1.000,-90.00,180.00,0.00,OPEN,0
557082.684,0,0,0,1.000,1.000,1.000,-90.00,180.00,0.00,OPEN,0
557082.694,0,0,0,1.000,1.000,1.000,-90.00,180.00,0.00,OPEN,0
557082.705,0,0,0,1.000,1.000,1.000,-90.00,180.00,0.00,OPEN,0
557082.715,0,0,0,1.000,1.000,1.000,-90.00,180.00,0.00,OPEN,0
557082.726,0,0,0,1.000,1.000,1.000,-90.00,180.00,0.00,OPEN,0
557082.737,0,0,0,1.000,1.000,1.000,-90.00,180.00,0.00,OPEN,0
557082.747,0,0,0,1.000,1.000,1.000,-90.00,180.00,0.00,OPEN,0
557082.758,0,0,0,1.000,1.000,1.000,-90.00,180.00,0.00,OPEN,0
557082.768,0,0,0,1.000,1.000,1.000,-90.00,180.00,0.00,OPEN,0
557082.778,0,0,0,1.000,1.000,1.000,-90.00,180.00,0.00,OPEN,0
557082.789,0,0,0,1.000,1.000,1.000,-90.00,180.00,0.00,OPEN,0
557082.799,0,1,1,1.000,0.998,1.000,0.00,90.00,0.00,OPEN,0
557082.810,0,1,1,1.000,0.998,1.000,0.00,90.00,0.00,OPEN,0
557082.821,0,1,1,1.000,0.998,1.000,0.00,90.00,0.00,OPEN,0
557082.831,0,1,1,1.000,0.998,1.000,0.00,90.00,0.00,OPEN,0
557082.841,0,1,1,1.000,0.998,1.000,0.00,90.00,0.00,OPEN,0
557082.851,0,1,1,1.000,0.981,0.929,0.00,90.00,0.00,OPEN,0
557082.862,0,1,1,1.000,0.981,0.929,0.00,90.00,0.00,OPEN,0
557082.873,0,1,1,1.000,0.981,0.929,0.00,90.00,0.00,OPEN,0
557082.883,0,1,1,1.000,0.981,0.929,0.00,90.00,0.00,OPEN,0
557082.894,0,1,1,1.000,1.000,0.557,0.00,90.00,0.00,OPEN,0
557082.904,0,1,1,1.000,1.000,0.557,0.00,90.00,0.00,OPEN,0
557082.915,0,1,1,1.000,1.000,0.557,0.00,90.00,0.00,OPEN,0
557082.925,0,1,1,1.000,1.000,0.557,0.00,90.00,0.00,OPEN,0
557082.936,0,1,1,1.000,1.000,0.557,0.00,90.00,0.00,OPEN,0
557082.947,0,1,1,1.000,1.000,0.994,0.00,90.00,0.00,OPEN,0
557082.957,0,1,1,1.000,1.000,0.994,0.00,90.00,0.00,OPEN,0
557082.967,0,1,1,1.000,1.000,0.994,0.00,90.00,0.00,OPEN,0
557082.978,0,1,1,1.000,1.000,0.994,0.00,90.00,0.00,OPEN,0
557082.989,0,1,1,1.000,1.000,0.994,0.00,90.00,0.00,OPEN,0
557083.000,0,1,1,1.000,1.000,0.998,0.00,90.00,0.00,OPEN,0
557083.010,0,1,1,1.000,1.000,0.998,0.00,90.00,0.00,OPEN,0
557083.021,0,1,1,1.000,1.000,0.998,0.00,90.00,0.00,OPEN,0
557083.031,0,1,1,1.000,1.000,0.998,0.00,90.00,0.00,OPEN,0
557083.042,0,1,1,1.000,1.000,0.997,0.00,90.00,0.00,OPEN,0
557083.053,0,1,1,1.000,1.000,0.997,0.00,90.00,0.00,OPEN,0
557083.063,0,1,1,1.000,1.000,0.997,0.00,90.00,0.00,OPEN,0
557083.074,0,1,1,1.000,1.000,0.997,0.00,90.00,0.00,OPEN,0
557083.084,0,1,1,1.000,1.000,0.997,0.00,90.00,0.00,OPEN,0
557083.095,0,1,1,1.000,1.000,0.997,0.00,90.00,0.00,OPEN,0
557083.105,0,1,1,1.000,1.000,0.997,0.00,90.00,0.00,OPEN,0
557083.116,0,1,1,1.000,1.000,0.997,0.00,90.00,0.00,OPEN,0
557083.126,0,1,1,1.000,1.000,0.997,0.00,90.00,0.00,OPEN,0
557083.137,0,1,1,1.000,1.000,0.997,0.00,90.00,0.00,OPEN,0
557083.147,0,1,1,1.000,1.000,0.993,0.00,90.00,0.00,OPEN,0
557083.158,0,1,1,1.000,1.000,0.993,0.00,90.00,0.00,OPEN,0
557083.168,0,1,1,1.000,1.000,0.993,0.00,90.00,0.00,OPEN,0
557083.179,0,1,1,1.000,1.000,0.993,0.00,90.00,0.00,OPEN,0
557083.190,0,1,1,1.000,1.000,0.993,0.00,90.00,0.00,OPEN,0
557083.200,0,1,1,1.000,1.000,0.992,0.00,90.00,0.00,OPEN,0
557083.211,0,1,1,1.000,1.000,0.992,0.00,90.00,0.00,OPEN,0
557083.222,0,1,1,1.000,1.000,0.992,0.00,90.00,0.00,OPEN,0
557083.232,0,1,1,1.000,1.000,0.992,0.00,90.00,0.00,OPEN,0
557083.242,0,0,1,1.000,1.000,0.993,0.00,180.00,0.00,OPEN,0
557083.253,0,0,1,1.000,1.000,0.993,0.00,180.00,0.00,OPEN,0
557083.264,0,0,1,1.000,1.000,0.993,0.00,180.00,0.00,OPEN,0
557083.274,0,0,1,1.000,1.000,0.993,0.00,180.00,0.00,OPEN,0
557083.285,0,0,1,1.000,1.000,0.993,0.00,180.00,0.00,OPEN,0
557083.295,0,0,1,1.000,1.000,0.995,0.00,180.00,0.00,OPEN,0
557083.305,0,0,1,1.000,1.000,0.995,0.00,180.00,0.00,OPEN,0
557083.316,0,0,1,1.000,1.000,0.995,0.00,180.00,0.00,OPEN,0
557083.326,0,0,1,1.000,1.000,0.995,0.00,180.00,0.00,OPEN,0
557083.336,0,0,1,1.000,1.000,0.995,0.00,180.00,0.00,OPEN,0
557083.347,0,0,1,1.000,1.000,0.993,0.00,180.00,0.00,OPEN,0
557083.357,0,0,1,1.000,1.000,0.993,0.00,180.00,0.00,OPEN,0
557083.368,0,0,1,1.000,1.000,0.993,0.00,180.00,0.00,OPEN,0
557083.378,0,0,1,1.000,1.000,0.993,0.00,180.00,0.00,OPEN,0
557083.389,0,0,1,1.000,1.000,0.993,0.00,180.00,0.00,OPEN,0
557083.399,0,0,1,1.000,1.000,0.987,0.00,180.00,0.00,OPEN,0
557083.410,0,0,1,1.000,1.000,0.987,0.00,180.00,0.00,OPEN,0
557083.420,0,0,1,1.000,1.000,0.987,0.00,180.00,0.00,OPEN,0
557083.431,0,0,1,1.000,1.000,0.987,0.00,180.00,0.00,OPEN,0
557083.441,0,0,1,1.000,1.000,0.987,0.00,180.00,0.00,OPEN,0
557083.452,0,0,1,1.000,1.000,0.980,0.00,180.00,0.00,OPEN,0
557083.462,0,0,1,1.000,1.000,0.980,0.00,180.00,0.00,OPEN,0
557083.473,0,0,1,1.000,1.000,0.980,0.00,180.00,0.00,OPEN,0
557083.483,0,0,1,1.000,1.000,0.980,0.00,180.00,0.00,OPEN,0
557083.494,0,0,1,1.000,1.000,0.992,0.00,180.00,0.00,OPEN,0
557083.504,0,0,1,1.000,1.000,0.992,0.00,180.00,0.00,OPEN,0
557083.515,0,0,1,1.000,1.000,0.992,0.00,180.00,0.00,OPEN,0
557083.525,0,0,1,1.000,1.000,0.992,0.00,180.00,0.00,OPEN,0
557083.535,0,0,1,1.000,1.000,0.992,0.00,180.00,0.00,OPEN,0
557083.546,0,0,1,1.000,1.000,0.990,0.00,180.00,0.00,OPEN,0
557083.557,0,0,1,1.000,1.000,0.990,0.00,180.00,0.00,OPEN,0
557083.567,0,0,1,1.000,1.000,0.990,0.00,180.00,0.00,OPEN,0
557083.578,0,0,1,1.000,1.000,0.990,0.00,180.00,0.00,OPEN,0
557083.588,0,0,1,1.000,1.000,0.990,0.00,180.00,0.00,OPEN,0
557083.598,0,0,1,1.000,1.000,0.986,0.00,180.00,0.00,OPEN,0
557083.609,0,0,1,1.000,1.000,0.986,0.00,180.00,0.00,OPEN,0
557083.620,0,0,1,1.000,1.000,0.986,0.00,180.00,0.00,OPEN,0
557083.630,0,0,1,1.000,1.000,0.986,0.00,180.00,0.00,OPEN,0
557083.641,0,0,1,1.000,1.000,0.986,0.00,180.00,0.00,OPEN,0
557083.651,0,0,1,1.000,1.000,0.947,0.00,180.00,0.00,OPEN,0
557083.662,0,0,1,1.000,1.000,0.947,0.00,180.00,0.00,OPEN,0
557083.672,0,0,1,1.000,1.000,0.947,0.00,180.00,0.00,OPEN,0
557083.682,0,0,1,1.000,1.000,0.947,0.00,180.00,0.00,OPEN,0
557083.693,0,0,1,1.000,1.000,0.573,0.00,180.00,0.00,OPEN,0
557083.703,0,0,1,1.000,1.000,0.573,0.00,180.00,0.00,OPEN,0
557083.714,0,0,1,1.000,1.000,0.573,0.00,180.00,0.00,OPEN,0
557083.724,0,0,1,1.000,1.000,0.573,0.00,180.00,0.00,OPEN,0
557083.734,0,0,1,1.000,1.000,0.573,0.00,180.00,0.00,OPEN,0
557083.745,0,0,1,1.000,1.000,0.558,0.00,180.00,0.00,OPEN,0
557083.756,0,0,1,1.000,1.000,0.558,0.00,180.00,0.00,OPEN,0
557083.766,0,0,1,1.000,1.000,0.558,0.00,180.00,0.00,OPEN,0
557083.776,0,0,1,1.000,1.000,0.558,0.00,180.00,0.00,OPEN,0
557083.787,0,0,1,1.000,1.000,0.558,0.00,180.00,0.00,OPEN,0
557083.797,0,0,1,1.000,1.000,0.526,0.00,180.00,0.00,OPEN,0
557083.808,0,0,1,1.000,1.000,0.526,0.00,180.00,0.00,OPEN,0
557083.819,0,0,1,1.000,1.000,0.526,0.00,180.00,0.00,OPEN,0
557083.829,0,0,1,1.000,1.000,0.526,0.00,180.00,0.00,OPEN,0
557083.840,0,0,1,1.000,1.000,0.526,0.00,180.00,0.00,OPEN,0
557083.851,0,0,1,1.000,1.000,0.538,0.00,180.00,0.00,OPEN,0
557083.861,0,0,1,1.000,1.000,0.538,0.00,180.00,0.00,OPEN,0
557083.871,0,0,1,1.000,1.000,0.538,0.00,180.00,0.00,OPEN,0
557083.882,0,0,1,1.000,1.000,0.538,0.00,180.00,0.00,OPEN,0
557083.892,0,0,1,1.000,1.000,0.552,0.00,180.00,0.00,OPEN,0
557083.902,0,0,1,1.000,1.000,0.552,0.00,180.00,0.00,OPEN,0
557083.913,0,0,1,1.000,1.000,0.552,0.00,180.00,0.00,OPEN,0
557083.923,0,0,1,1.000,1.000,0.552,0.00,180.00,0.00,OPEN,0
557083.934,0,0,1,1.000,1.000,0.552,0.00,180.00,0.00,OPEN,0
557083.944,0,0,1,1.000,1.000,0.845,0.00,180.00,0.00,OPEN,0
557083.955,0,0,1,1.000,1.000,0.845,0.00,180.00,0.00,OPEN,0
557083.965,0,0,1,1.000,1.000,0.845,0.00,180.00,0.00,OPEN,0
557083.975,0,0,1,1.000,1.000,0.845,0.00,180.00,0.00,OPEN,0
557083.986,0,0,1,1.000,1.000,0.845,0.00,180.00,0.00,OPEN,0
557083.996,0,0,1,1.000,1.000,0.923,0.00,180.00,0.00,OPEN,0
557084.007,0,0,1,1.000,1.000,0.923,0.00,180.00,0.00,OPEN,0
557084.017,0,0,1,1.000,1.000,0.923,0.00,180.00,0.00,OPEN,0
557084.028,0,0,1,1.000,1.000,0.923,0.00,180.00,0.00,OPEN,0
557084.038,0,0,1,1.000,1.000,0.923,0.00,180.00,0.00,OPEN,0
557084.049,0,0,1,1.000,1.000,0.957,0.00,180.00,0.00,OPEN,0
557084.060,0,0,1,1.000,1.000,0.957,0.00,180.00,0.00,OPEN,0
557084.070,0,0,1,1.000,1.000,0.957,0.00,180.00,0.00,OPEN,0
557084.080,0,0,1,1.000,1.000,0.957,0.00,180.00,0.00,OPEN,0
557084.091,0,0,1,1.000,1.000,0.957,0.00,180.00,0.00,OPEN,0
557084.102,0,0,1,1.000,1.000,0.960,0.00,180.00,0.00,OPEN,0
557084.113,0,0,1,1.000,1.000,0.960,0.00,180.00,0.00,OPEN,0
557084.124,0,0,1,1.000,1.000,0.960,0.00,180.00,0.00,OPEN,0
557084.134,0,0,1,1.000,1.000,0.960,0.00,180.00,0.00,OPEN,0
557084.145,0,0,1,1.000,1.000,0.938,0.00,180.00,0.00,OPEN,0
557084.155,0,0,1,1.000,1.000,0.938,0.00,180.00,0.00,OPEN,0
557084.166,0,0,1,1.000,1.000,0.938,0.00,180.00,0.00,OPEN,0
557084.177,0,0,1,1.000,1.000,0.938,0.00,180.00,0.00,OPEN,0
557084.187,0,0,1,1.000,1.000,0.938,0.00,180.00,0.00,OPEN,0
557084.198,0,0,1,1.000,1.000,0.924,0.00,180.00,0.00,OPEN,0
557084.208,0,0,1,1.000,1.000,0.924,0.00,180.00,0.00,OPEN,0
557084.219,0,0,1,1.000,1.000,0.924,0.00,180.00,0.00,OPEN,0
557084.229,0,0,1,1.000,1.000,0.924,0.00,180.00,0.00,OPEN,0
557084.240,0,0,1,1.000,1.000,0.924,0.00,180.00,0.00,OPEN,0
557084.250,0,0,1,1.000,1.000,0.876,0.00,180.00,0.00,OPEN,0
557084.261,0,0,1,1.000,1.000,0.876,0.00,180.00,0.00,OPEN,0
557084.271,0,0,1,1.000,1.000,0.876,0.00,180.00,0.00,OPEN,0
557084.282,0,0,1,1.000,1.000,0.876,0.00,180.00,0.00,OPEN,0
557084.293,0,0,1,1.000,1.000,0.880,0.00,180.00,0.00,OPEN,0
557084.303,0,0,1,1.000,1.000,0.880,0.00,180.00,0.00,OPEN,0
557084.314,0,0,1,1.000,1.000,0.880,0.00,180.00,0.00,OPEN,0
557084.324,0,0,1,1.000,1.000,0.880,0.00,180.00,0.00,OPEN,0
557084.335,0,0,1,1.000,1.000,0.880,0.00,180.00,0.00,OPEN,0
557084.346,0,0,1,1.000,1.000,0.894,0.00,180.00,0.00,OPEN,0
557084.356,0,0,1,1.000,1.000,0.894,0.00,180.00,0.00,OPEN,0
557084.367,0,0,1,1.000,1.000,0.894,0.00,180.00,0.00,OPEN,0
557084.378,0,0,1,1.000,1.000,0.894,0.00,180.00,0.00,OPEN,0
557084.388,0,0,1,1.000,1.000,0.894,0.00,180.00,0.00,OPEN,0
557084.399,0,0,1,1.000,1.000,0.924,0.00,180.00,0.00,OPEN,0
557084.410,0,0,1,1.000,1.000,0.924,0.00,180.00,0.00,OPEN,0
557084.420,0,0,1,1.000,1.000,0.924,0.00,180.00,0.00,OPEN,0
557084.430,0,0,1,1.000,1.000,0.924,0.00,180.00,0.00,OPEN,0
557084.441,0,0,1,1.000,1.000,0.924,0.00,180.00,0.00,OPEN,0
557084.451,0,0,1,1.000,1.000,0.936,0.00,180.00,0.00,OPEN,0
557084.462,0,0,1,1.000,1.000,0.936,0.00,180.00,0.00,OPEN,0
557084.472,0,0,1,1.000,1.000,0.936,0.00,180.00,0.00,OPEN,0
557084.483,0,0,1,1.000,1.000,0.936,0.00,180.00,0.00,OPEN,0
557084.493,0,0,1,1.000,1.000,0.976,0.00,180.00,0.00,OPEN,0
557084.504,0,0,1,1.000,1.000,0.976,0.00,180.00,0.00,OPEN,0
557084.514,0,0,1,1.000,1.000,0.976,0.00,180.00,0.00,OPEN,0
557084.525,0,0,1,1.000,1.000,0.976,0.00,180.00,0.00,OPEN,0
557084.535,0,0,1,1.000,1.000,0.976,0.00,180.00,0.00,OPEN,0
557084.546,0,0,1,1.000,1.000,0.982,0.00,180.00,0.00,OPEN,0
557084.557,0,0,1,1.000,1.000,0.982,0.00,180.00,0.00,OPEN,0
557084.568,0,0,1,1.000,1.000,0.982,0.00,180.00,0.00,OPEN,0
557084.578,0,0,1,1.000,1.000,0.982,0.00,180.00,0.00,OPEN,0
557084.589,0,0,1,1.000,1.000,0.982,0.00,180.00,0.00,OPEN,0
557084.599,0,0,1,1.000,1.000,0.984,0.00,180.00,0.00,OPEN,0
557084.610,0,0,1,1.000,1.000,0.984,0.00,180.00,0.00,OPEN,0
557084.621,0,0,1,1.000,1.000,0.984,0.00,180.00,0.00,OPEN,0
557084.631,0,0,1,1.000,1.000,0.984,0.00,180.00,0.00,OPEN,0
557084.642,0,0,1,1.000,1.000,0.984,0.00,180.00,0.00,OPEN,0
557084.652,0,0,1,1.000,1.000,0.991,0.00,180.00,0.00,OPEN,0
557084.663,0,0,1,1.000,1.000,0.991,0.00,180.00,0.00,OPEN,0
557084.674,0,0,1,1.000,1.000,0.991,0.00,180.00,0.00,OPEN,0
557084.685,0,0,1,1.000,1.000,0.991,0.00,180.00,0.00,OPEN,0
557084.695,0,0,1,1.000,1.000,0.993,0.00,180.00,0.00,OPEN,0
557084.706,0,0,1,1.000,1.000,0.993,0.00,180.00,0.00,OPEN,0
557084.717,0,0,1,1.000,1.000,0.993,0.00,180.00,0.00,OPEN,0
557084.727,0,0,1,1.000,1.000,0.993,0.00,180.00,0.00,OPEN,0
557084.738,0,0,1,1.000,1.000,0.993,0.00,180.00,0.00,OPEN,0
557084.748,0,0,1,1.000,1.000,0.991,0.00,180.00,0.00,OPEN,0
557084.759,0,0,1,1.000,1.000,0.991,0.00,180.00,0.00,OPEN,0
557084.770,0,0,1,1.000,1.000,0.991,0.00,180.00,0.00,OPEN,0
557084.780,0,0,1,1.000,1.000,0.991,0.00,180.00,0.00,OPEN,0
557084.791,0,0,1,1.000,1.000,0.991,0.00,180.00,0.00,OPEN,0
557084.801,0,0,1,1.000,1.000,0.994,0.00,180.00,0.00,OPEN,0
557084.812,0,0,1,1.000,1.000,0.994,0.00,180.00,0.00,OPEN,0
557084.822,0,0,1,1.000,1.000,0.994,0.00,180.00,0.00,OPEN,0
557084.833,0,0,1,1.000,1.000,0.994,0.00,180.00,0.00,OPEN,0
557084.843,0,0,1,1.000,1.000,0.996,0.00,180.00,0.00,OPEN,0
557084.854,0,0,1,1.000,1.000,0.996,0.00,180.00,0.00,OPEN,0
557084.865,0,0,1,1.000,1.000,0.996,0.00,180.00,0.00,OPEN,0
557084.875,0,0,1,1.000,1.000,0.996,0.00,180.00,0.00,OPEN,0
557084.886,0,0,1,1.000,1.000,0.996,0.00,180.00,0.00,OPEN,0
557084.896,0,0,1,1.000,1.000,0.996,0.00,180.00,0.00,OPEN,0
557084.907,0,0,1,1.000,1.000,0.996,0.00,180.00,0.00,OPEN,0
557084.918,0,0,1,1.000,1.000,0.996,0.00,180.00,0.00,OPEN,0
557084.929,0,0,1,1.000,1.000,0.996,0.00,180.00,0.00,OPEN,0
557084.939,0,0,1,1.000,1.000,0.996,0.00,180.00,0.00,OPEN,0
557084.949,0,0,1,1.000,1.000,0.996,0.00,180.00,0.00,OPEN,0
557084.959,0,0,1,1.000,1.000,0.996,0.00,180.00,0.00,OPEN,0
557084.970,0,0,1,1.000,1.000,0.996,0.00,180.00,0.00,OPEN,0
557084.980,0,0,1,1.000,1.000,0.996,0.00,180.00,0.00,OPEN,0
557084.991,0,0,1,1.000,1.000,0.996,0.00,180.00,0.00,OPEN,0
557085.002,0,0,1,1.000,1.000,0.997,0.00,180.00,0.00,OPEN,0
557085.012,0,0,1,1.000,1.000,0.997,0.00,180.00,0.00,OPEN,0
557085.022,0,0,1,1.000,1.000,0.997,0.00,180.00,0.00,OPEN,0
557085.033,0,0,1,1.000,1.000,0.997,0.00,180.00,0.00,OPEN,0
557085.043,0,0,1,1.000,1.000,0.992,0.00,180.00,0.00,OPEN,0
557085.054,0,0,1,1.000,1.000,0.992,0.00,180.00,0.00,OPEN,0
557085.064,0,0,1,1.000,1.000,0.992,0.00,180.00,0.00,OPEN,0
557085.075,0,0,1,1.000,1.000,0.992,0.00,180.00,0.00,OPEN,0
557085.085,0,0,1,1.000,1.000,0.992,0.00,180.00,0.00,OPEN,0
557085.096,0,0,1,1.000,1.000,0.905,0.00,180.00,0.00,OPEN,0
557085.107,0,0,1,1.000,1.000,0.905,0.00,180.00,0.00,OPEN,0
557085.117,0,0,1,1.000,1.000,0.905,0.00,180.00,0.00,OPEN,0
557085.128,0,0,1,1.000,1.000,0.905,0.00,180.00,0.00,OPEN,0
557085.138,0,0,1,1.000,1.000,0.905,0.00,180.00,0.00,OPEN,0
557085.148,0,0,1,1.000,1.000,0.789,0.00,180.00,0.00,OPEN,0
557085.159,0,0,1,1.000,1.000,0.789,0.00,180.00,0.00,OPEN,0
557085.169,0,0,1,1.000,1.000,0.789,0.00,180.00,0.00,OPEN,0
557085.180,0,0,1,1.000,1.000,0.789,0.00,180.00,0.00,OPEN,0
557085.190,0,0,1,1.000,1.000,0.789,0.00,180.00,0.00,OPEN,0
557085.201,0,0,1,1.000,1.000,0.629,0.00,180.00,0.00,OPEN,0
557085.212,0,0,1,1.000,1.000,0.629,0.00,180.00,0.00,OPEN,0
557085.222,0,0,1,1.000,1.000,0.629,0.00,180.00,0.00,OPEN,0
557085.233,0,0,1,1.000,1.000,0.629,0.00,180.00,0.00,OPEN,0
557085.244,0,0,1,1.000,1.000,0.653,0.00,180.00,0.00,OPEN,0
557085.254,0,0,1,1.000,1.000,0.653,0.00,180.00,0.00,OPEN,0
557085.265,0,0,1,1.000,1.000,0.653,0.00,180.00,0.00,OPEN,0
557085.275,0,0,1,1.000,1.000,0.653,0.00,180.00,0.00,OPEN,0
557085.286,0,0,1,1.000,1.000,0.653,0.00,180.00,0.00,OPEN,0
557085.296,0,0,1,1.000,1.000,0.679,0.00,180.00,0.00,OPEN,0
557085.306,0,0,1,1.000,1.000,0.679,0.00,180.00,0.00,OPEN,0
557085.317,0,0,1,1.000,1.000,0.679,0.00,180.00,0.00,OPEN,0
557085.327,0,0,1,1.000,1.000,0.679,0.00,180.00,0.00,OPEN,0
557085.338,0,0,1,1.000,1.000,0.679,0.00,180.00,0.00,OPEN,0
557085.349,0,0,1,1.000,1.000,0.557,0.00,180.00,0.00,OPEN,0
557085.359,0,0,1,1.000,1.000,0.557,0.00,180.00,0.00,OPEN,0
557085.370,0,0,1,1.000,1.000,0.557,0.00,180.00,0.00,OPEN,0
557085.380,0,0,1,1.000,1.000,0.557,0.00,180.00,0.00,OPEN,0
557085.391,0,0,1,1.000,1.000,0.557,0.00,180.00,0.00,OPEN,0
557085.401,0,0,1,1.000,1.000,0.544,0.00,180.00,0.00,OPEN,0
557085.412,0,0,1,1.000,1.000,0.544,0.00,180.00,0.00,OPEN,0
557085.423,0,0,1,1.000,1.000,0.544,0.00,180.00,0.00,OPEN,0
557085.433,0,0,1,1.000,1.000,0.544,0.00,180.00,0.00,OPEN,0
557085.444,0,0,1,1.000,1.000,0.520,0.00,180.00,0.00,OPEN,0
557085.455,0,0,1,1.000,1.000,0.520,0.00,180.00,0.00,OPEN,0
557085.465,0,0,1,1.000,1.000,0.520,0.00,180.00,0.00,OPEN,0
557085.476,0,0,1,1.000,1.000,0.520,0.00,180.00,0.00,OPEN,0
557085.486,0,0,1,1.000,1.000,0.520,0.00,180.00,0.00,OPEN,0
557085.496,0,0,1,1.000,1.000,0.542,0.00,180.00,0.00,OPEN,0
557085.507,0,0,1,1.000,1.000,0.542,0.00,180.00,0.00,OPEN,0
557085.517,0,0,1,1.000,1.000,0.542,0.00,180.00,0.00,OPEN,0
557085.528,0,0,1,1.000,1.000,0.542,0.00,180.00,0.00,OPEN,0
557085.538,0,0,1,1.000,1.000,0.542,0.00,180.00,0.00,OPEN,0
557085.549,0,0,1,1.000,1.000,0.722,0.00,180.00,0.00,OPEN,0
557085.560,0,0,1,1.000,1.000,0.722,0.00,180.00,0.00,OPEN,0
557085.570,0,0,1,1.000,1.000,0.722,0.00,180.00,0.00,OPEN,0
557085.580,0,0,1,1.000,1.000,0.722,0.00,180.00,0.00,OPEN,0
557085.591,0,0,1,1.000,1.000,0.722,0.00,180.00,0.00,OPEN,0
557085.602,0,0,1,1.000,1.000,0.734,0.00,180.00,0.00,OPEN,0
557085.612,0,0,1,1.000,1.000,0.734,0.00,180.00,0.00,OPEN,0
557085.623,0,0,1,1.000,1.000,0.734,0.00,180.00,0.00,OPEN,0
557085.633,0,0,1,1.000,1.000,0.734,0.00,180.00,0.00,OPEN,0
557085.644,0,0,1,1.000,1.000,0.816,0.00,180.00,0.00,OPEN,0
557085.655,0,0,1,1.000,1.000,0.816,0.00,180.00,0.00,OPEN,0
557085.665,0,0,1,1.000,1.000,0.816,0.00,180.00,0.00,OPEN,0
557085.676,0,0,1,1.000,1.000,0.816,0.00,180.00,0.00,OPEN,0
557085.687,0,0,1,1.000,1.000,0.816,0.00,180.00,0.00,OPEN,0
557085.700,0,0,1,1.000,1.000,0.864,0.00,180.00,0.00,OPEN,0
557085.711,0,0,1,1.000,1.000,0.864,0.00,180.00,0.00,OPEN,0
557085.722,0,0,1,1.000,1.000,0.864,0.00,180.00,0.00,OPEN,0
557085.732,0,0,1,1.000,1.000,0.864,0.00,180.00,0.00,OPEN,0
557085.743,0,0,1,1.000,1.000,0.877,0.00,180.00,0.00,OPEN,0
557085.755,0,0,1,1.000,1.000,0.877,0.00,180.00,0.00,OPEN,0
557085.766,0,0,1,1.000,1.000,0.877,0.00,180.00,0.00,OPEN,0
557085.777,0,0,1,1.000,1.000,0.877,0.00,180.00,0.00,OPEN,0
557085.788,0,0,1,1.000,1.000,0.877,0.00,180.00,0.00,OPEN,0
557085.799,0,0,1,1.000,1.000,0.816,0.00,180.00,0.00,OPEN,0
557085.810,0,0,1,1.000,1.000,0.816,0.00,180.00,0.00,OPEN,0
557085.820,0,0,1,1.000,1.000,0.816,0.00,180.00,0.00,OPEN,0
557085.831,0,0,1,1.000,1.000,0.816,0.00,180.00,0.00,OPEN,0
557085.841,0,0,1,1.000,1.000,0.816,0.00,180.00,0.00,OPEN,0
557085.851,0,0,1,1.000,1.000,0.797,0.00,180.00,0.00,OPEN,0
557085.862,0,0,1,1.000,1.000,0.797,0.00,180.00,0.00,OPEN,0
557085.873,0,0,1,1.000,1.000,0.797,0.00,180.00,0.00,OPEN,0
557085.883,0,0,1,1.000,1.000,0.797,0.00,180.00,0.00,OPEN,0
557085.894,0,0,1,1.000,1.000,0.678,0.00,180.00,0.00,OPEN,0
557085.904,0,0,1,1.000,1.000,0.678,0.00,180.00,0.00,OPEN,0
557085.915,0,0,1,1.000,1.000,0.678,0.00,180.00,0.00,OPEN,0
557085.925,0,0,1,1.000,1.000,0.678,0.00,180.00,0.00,OPEN,0
557085.935,0,0,1,1.000,1.000,0.678,0.00,180.00,0.00,OPEN,0
557085.946,0,0,1,1.000,1.000,0.640,0.00,180.00,0.00,OPEN,0
557085.956,0,0,1,1.000,1.000,0.640,0.00,180.00,0.00,OPEN,0
557085.967,0,0,1,1.000,1.000,0.640,0.00,180.00,0.00,OPEN,0
557085.977,0,0,1,1.000,1.000,0.640,0.00,180.00,0.00,OPEN,0
557085.988,0,0,1,1.000,1.000,0.640,0.00,180.00,0.00,OPEN,0
557085.999,0,0,1,1.000,1.000,0.753,0.00,180.00,0.00,OPEN,0
557086.009,0,0,1,1.000,1.000,0.753,0.00,180.00,0.00,OPEN,0
557086.020,0,0,1,1.000,1.000,0.753,0.00,180.00,0.00,OPEN,0
557086.030,0,0,1,1.000,1.000,0.753,0.00,180.00,0.00,OPEN,0
557086.041,0,0,1,1.000,1.000,0.753,0.00,180.00,0.00,OPEN,0
557086.051,0,0,1,1.000,1.000,0.572,0.00,180.00,0.00,OPEN,0
557086.062,0,0,1,1.000,1.000,0.572,0.00,180.00,0.00,OPEN,0
557086.072,0,0,1,1.000,1.000,0.572,0.00,180.00,0.00,OPEN,0
557086.083,0,0,1,1.000,1.000,0.572,0.00,180.00,0.00,OPEN,0
557086.093,0,0,1,1.000,1.000,0.506,0.00,180.00,0.00,OPEN,0
557086.104,0,0,1,1.000,1.000,0.506,0.00,180.00,0.00,OPEN,0
557086.115,0,0,1,1.000,1.000,0.506,0.00,180.00,0.00,OPEN,0
557086.125,0,0,1,1.000,1.000,0.506,0.00,180.00,0.00,OPEN,0
557086.136,0,0,1,1.000,1.000,0.506,0.00,180.00,0.00,OPEN,0
557086.146,0,0,1,1.000,1.000,0.506,0.00,180.00,0.00,OPEN,0
557086.157,0,0,1,1.000,1.000,0.506,0.00,180.00,0.00,OPEN,0
557086.168,0,0,1,1.000,1.000,0.506,0.00,180.00,0.00,OPEN,0
557086.178,0,0,1,1.000,1.000,0.506,0.00,180.00,0.00,OPEN,0
557086.189,0,0,1,1.000,1.000,0.506,0.00,180.00,0.00,OPEN,0
557086.199,0,0,1,1.000,1.000,0.521,0.00,180.00,0.00,OPEN,0
557086.210,0,0,1,1.000,1.000,0.521,0.00,180.00,0.00,OPEN,0
557086.221,0,0,1,1.000,1.000,0.521,0.00,180.00,0.00,OPEN,0
557086.232,0,0,1,1.000,1.000,0.521,0.00,180.00,0.00,OPEN,0
557086.242,0,0,1,1.000,1.000,0.521,0.00,180.00,0.00,OPEN,0
557086.253,0,0,1,1.000,1.000,0.512,0.00,180.00,0.00,OPEN,0
557086.264,0,0,1,1.000,1.000,0.512,0.00,180.00,0.00,OPEN,0
557086.274,0,0,1,1.000,1.000,0.512,0.00,180.00,0.00,OPEN,0
557086.285,0,0,1,1.000,1.000,0.512,0.00,180.00,0.00,OPEN,0
557086.295,0,0,1,1.000,1.000,0.578,0.00,180.00,0.00,OPEN,0
557086.305,0,0,1,1.000,1.000,0.578,0.00,180.00,0.00,OPEN,0
557086.316,0,0,1,1.000,1.000,0.578,0.00,180.00,0.00,OPEN,0
557086.326,0,0,1,1.000,1.000,0.578,0.00,180.00,0.00,OPEN,0
557086.337,0,0,1,1.000,1.000,0.578,0.00,180.00,0.00,OPEN,0
557086.347,0,0,1,1.000,1.000,0.524,0.00,180.00,0.00,OPEN,0
557086.358,0,0,1,1.000,1.000,0.524,0.00,180.00,0.00,OPEN,0
557086.368,0,0,1,1.000,1.000,0.524,0.00,180.00,0.00,OPEN,0
557086.378,0,0,1,1.000,1.000,0.524,0.00,180.00,0.00,OPEN,0
557086.388,0,0,1,1.000,1.000,0.524,0.00,180.00,0.00,OPEN,0
557086.399,0,0,1,1.000,1.000,0.695,0.00,180.00,0.00,OPEN,0
557086.409,0,0,1,1.000,1.000,0.695,0.00,180.00,0.00,OPEN,0
557086.419,0,0,1,1.000,1.000,0.695,0.00,180.00,0.00,OPEN,0
557086.430,0,0,1,1.000,1.000,0.695,0.00,180.00,0.00,OPEN,0
557086.440,0,0,1,1.000,1.000,0.695,0.00,180.00,0.00,OPEN,0
557086.451,0,0,1,1.000,1.000,0.664,0.00,180.00,0.00,OPEN,0
557086.461,0,0,1,1.000,1.000,0.664,0.00,180.00,0.00,OPEN,0
557086.472,0,0,1,1.000,1.000,0.664,0.00,180.00,0.00,OPEN,0
557086.482,0,0,1,1.000,1.000,0.664,0.00,180.00,0.00,OPEN,0
557086.493,0,0,1,1.000,1.000,0.529,0.00,180.00,0.00,OPEN,0
557086.503,0,0,1,1.000,1.000,0.529,0.00,180.00,0.00,OPEN,0
557086.513,0,0,1,1.000,1.000,0.529,0.00,180.00,0.00,OPEN,0
557086.523,0,0,1,1.000,1.000,0.529,0.00,180.00,0.00,OPEN,0
557086.534,0,0,1,1.000,1.000,0.529,0.00,180.00,0.00,OPEN,0
557086.544,0,0,1,1.000,1.000,0.666,0.00,180.00,0.00,OPEN,0
557086.555,0,0,1,1.000,1.000,0.666,0.00,180.00,0.00,OPEN,0
557086.566,0,0,1,1.000,1.000,0.666,0.00,180.00,0.00,OPEN,0
557086.576,0,0,1,1.000,1.000,0.666,0.00,180.00,0.00,OPEN,0
557086.587,0,0,1,1.000,1.000,0.666,0.00,180.00,0.00,OPEN,0
557086.597,0,0,1,1.000,1.000,0.675,0.00,180.00,0.00,OPEN,0
557086.608,0,0,1,1.000,1.000,0.675,0.00,180.00,0.00,OPEN,0
557086.619,0,0,1,1.000,1.000,0.675,0.00,180.00,0.00,OPEN,0
557086.629,0,0,1,1.000,1.000,0.675,0.00,180.00,0.00,OPEN,0
557086.639,0,0,1,1.000,1.000,0.675,0.00,180.00,0.00,OPEN,0
557086.650,0,0,1,1.000,1.000,0.761,0.00,180.00,0.00,OPEN,0
557086.661,0,0,1,1.000,1.000,0.761,0.00,180.00,0.00,OPEN,0
557086.671,0,0,1,1.000,1.000,0.761,0.00,180.00,0.00,OPEN,0
557086.681,0,0,1,1.000,1.000,0.761,0.00,180.00,0.00,OPEN,0
557086.692,0,0,1,1.000,1.000,0.761,0.00,180.00,0.00,OPEN,0
557086.702,0,0,1,1.000,1.000,0.835,0.00,180.00,0.00,OPEN,0
557086.713,0,0,1,1.000,1.000,0.835,0.00,180.00,0.00,OPEN,0
557086.723,0,0,1,1.000,1.000,0.835,0.00,180.00,0.00,OPEN,0
557086.734,0,0,1,1.000,1.000,0.835,0.00,180.00,0.00,OPEN,0
557086.744,0,0,1,1.000,1.000,0.763,0.00,180.00,0.00,OPEN,0
557086.755,0,0,1,1.000,1.000,0.763,0.00,180.00,0.00,OPEN,0
557086.766,0,0,1,1.000,1.000,0.763,0.00,180.00,0.00,OPEN,0
557086.777,0,0,1,1.000,1.000,0.763,0.00,180.00,0.00,OPEN,0
557086.787,0,0,1,1.000,1.000,0.763,0.00,180.00,0.00,OPEN,0
557086.797,0,0,1,1.000,1.000,0.608,0.00,180.00,0.00,OPEN,0
557086.808,0,0,1,1.000,1.000,0.608,0.00,180.00,0.00,OPEN,0
557086.818,0,0,1,1.000,1.000,0.608,0.00,180.00,0.00,OPEN,0
557086.829,0,0,1,1.000,1.000,0.608,0.00,180.00,0.00,OPEN,0
557086.840,0,0,1,1.000,1.000,0.608,0.00,180.00,0.00,OPEN,0
557086.851,0,0,1,1.000,1.000,0.556,0.00,180.00,0.00,OPEN,0
557086.861,0,0,1,1.000,1.000,0.556,0.00,180.00,0.00,OPEN,0
557086.872,0,0,1,1.000,1.000,0.556,0.00,180.00,0.00,OPEN,0
557086.883,0,0,1,1.000,1.000,0.556,0.00,180.00,0.00,OPEN,0
557086.894,0,0,1,1.000,1.000,0.669,0.00,180.00,0.00,OPEN,0
557086.904,0,0,1,1.000,1.000,0.669,0.00,180.00,0.00,OPEN,0
557086.915,0,0,1,1.000,1.000,0.669,0.00,180.00,0.00,OPEN,0
557086.925,0,0,1,1.000,1.000,0.669,0.00,180.00,0.00,OPEN,0
557086.936,0,0,1,1.000,1.000,0.669,0.00,180.00,0.00,OPEN,0
557086.947,0,0,1,1.000,0.698,1.000,0.00,180.00,0.00,OPEN,0
557086.958,0,0,1,1.000,0.698,1.000,0.00,180.00,0.00,OPEN,0
557086.968,0,0,1,1.000,0.698,1.000,0.00,180.00,0.00,OPEN,0
557086.978,0,0,1,1.000,0.698,1.000,0.00,180.00,0.00,OPEN,0
557086.989,0,0,1,1.000,0.698,1.000,0.00,180.00,0.00,OPEN,0
557086.999,0,0,1,1.000,1.000,1.000,0.00,180.00,0.00,OPEN,0
557087.010,0,0,1,1.000,1.000,1.000,0.00,180.00,0.00,OPEN,0
557087.020,0,0,1,1.000,1.000,1.000,0.00,180.00,0.00,OPEN,0
557087.031,0,0,1,1.000,1.000,1.000,0.00,180.00,0.00,OPEN,0
557087.041,0,0,1,1.000,1.000,1.000,0.00,180.00,0.00,OPEN,0
557087.051,0,0,1,1.000,1.000,1.000,0.00,180.00,0.00,OPEN,0
557087.062,0,0,1,1.000,1.000,1.000,0.00,180.00,0.00,OPEN,0
557087.072,0,0,1,1.000,1.000,1.000,0.00,180.00,0.00,OPEN,0
557087.083,0,0,1,1.000,1.000,1.000,0.00,180.00,0.00,OPEN,0
557087.093,0,0,1,1.000,1.000,1.000,0.00,180.00,0.00,OPEN,0
557087.104,0,0,1,1.000,1.000,1.000,0.00,180.00,0.00,OPEN,0
557087.114,0,0,1,1.000,1.000,1.000,0.00,180.00,0.00,OPEN,0
557087.125,0,0,1,1.000,1.000,1.000,0.00,180.00,0.00,OPEN,0
557087.135,0,0,1,1.000,1.000,1.000,0.00,180.00,0.00,OPEN,0
557087.146,0,0,1,1.000,1.000,1.000,0.00,180.00,0.00,OPEN,0
557087.156,0,0,1,1.000,1.000,1.000,0.00,180.00,0.00,OPEN,0
557087.167,0,0,1,1.000,1.000,1.000,0.00,180.00,0.00,OPEN,0
557087.177,0,0,1,1.000,1.000,1.000,0.00,180.00,0.00,OPEN,0
557087.188,0,0,1,1.000,1.000,1.000,0.00,180.00,0.00,OPEN,0
557087.199,0,0,1,1.000,1.000,1.000,0.00,180.00,0.00,OPEN,0
557087.209,0,0,1,1.000,1.000,1.000,0.00,180.00,0.00,OPEN,0
557087.220,0,0,1,1.000,1.000,1.000,0.00,180.00,0.00,OPEN,0
557087.231,0,0,1,1.000,1.000,1.000,0.00,180.00,0.00,OPEN,0
557087.241,0,0,1,1.000,1.000,1.000,0.00,180.00,0.00,OPEN,0
557087.252,0,0,1,1.000,1.000,1.000,0.00,180.00,0.00,OPEN,0
557087.262,0,0,1,1.000,1.000,1.000,0.00,180.00,0.00,OPEN,0
557087.273,0,0,1,1.000,1.000,1.000,0.00,180.00,0.00,OPEN,0
557087.283,0,0,1,1.000,1.000,1.000,0.00,180.00,0.00,OPEN,0
557087.294,0,0,1,1.000,1.000,1.000,0.00,180.00,0.00,OPEN,0
557087.304,0,0,1,1.000,1.000,1.000,0.00,180.00,0.00,OPEN,0
557087.315,0,0,1,1.000,1.000,1.000,0.00,180.00,0.00,OPEN,0
557087.325,0,0,1,1.000,1.000,1.000,0.00,180.00,0.00,OPEN,0
557087.336,0,0,1,1.000,1.000,1.000,0.00,180.00,0.00,OPEN,0
557087.346,0,1,1,1.000,1.000,1.000,0.00,90.00,0.00,OPEN,0
557087.357,0,1,1,1.000,1.000,1.000,0.00,90.00,0.00,OPEN,0
557087.367,0,1,1,1.000,1.000,1.000,0.00,90.00,0.00,OPEN,0
557087.378,0,1,1,1.000,1.000,1.000,0.00,90.00,0.00,OPEN,0
557087.388,0,1,1,1.000,1.000,1.000,0.00,90.00,0.00,OPEN,0
557087.399,0,1,1,1.000,1.000,1.000,0.00,90.00,0.00,OPEN,0
557087.410,0,1,1,1.000,1.000,1.000,0.00,90.00,0.00,OPEN,0
557087.420,0,1,1,1.000,1.000,1.000,0.00,90.00,0.00,OPEN,0
557087.431,0,1,1,1.000,1.000,1.000,0.00,90.00,0.00,OPEN,0
557087.441,0,1,1,1.000,1.000,1.000,0.00,90.00,0.00,OPEN,0
557087.452,0,1,1,0.984,1.000,1.000,0.00,90.00,0.00,OPEN,0
557087.463,0,1,1,0.984,1.000,1.000,0.00,90.00,0.00,OPEN,0
557087.473,0,1,1,0.984,1.000,1.000,0.00,90.00,0.00,OPEN,0
557087.484,0,1,1,0.984,1.000,1.000,0.00,90.00,0.00,OPEN,0
557087.494,0,1,1,0.986,1.000,1.000,0.00,90.00,0.00,OPEN,0
557087.505,0,1,1,0.986,1.000,1.000,0.00,90.00,0.00,OPEN,0
557087.515,0,1,1,0.986,1.000,1.000,0.00,90.00,0.00,OPEN,0
557087.526,0,1,1,0.986,1.000,1.000,0.00,90.00,0.00,OPEN,0
557087.536,0,1,1,0.986,1.000,1.000,0.00,90.00,0.00,OPEN,0
557087.547,0,1,1,0.972,1.000,1.000,0.00,90.00,0.00,OPEN,0
557087.557,0,1,1,0.972,1.000,1.000,0.00,90.00,0.00,OPEN,0
557087.568,0,1,1,0.972,1.000,1.000,0.00,90.00,0.00,OPEN,0
557087.578,0,1,1,0.972,1.000,1.000,0.00,90.00,0.00,OPEN,0
557087.588,0,1,1,0.972,1.000,1.000,0.00,90.00,0.00,OPEN,0
557087.599,0,1,1,0.970,1.000,1.000,0.00,90.00,0.00,OPEN,0
557087.609,0,1,1,0.970,1.000,1.000,0.00,90.00,0.00,OPEN,0
557087.620,0,1,1,0.970,1.000,1.000,0.00,90.00,0.00,OPEN,0
557087.630,0,1,1,0.970,1.000,1.000,0.00,90.00,0.00,OPEN,0
557087.641,0,1,1,0.970,1.000,1.000,0.00,90.00,0.00,OPEN,0
557087.652,0,1,1,0.966,1.000,1.000,0.00,90.00,0.00,OPEN,0
557087.662,0,1,1,0.966,1.000,1.000,0.00,90.00,0.00,OPEN,0
557087.673,0,1,1,0.966,1.000,1.000,0.00,90.00,0.00,OPEN,0
557087.684,0,1,1,0.966,1.000,1.000,0.00,90.00,0.00,OPEN,0
557087.694,0,1,1,0.958,1.000,1.000,0.00,90.00,0.00,OPEN,0
557087.705,0,1,1,0.958,1.000,1.000,0.00,90.00,0.00,OPEN,0
557087.716,0,1,1,0.958,1.000,1.000,0.00,90.00,0.00,OPEN,0
557087.726,0,1,1,0.958,1.000,1.000,0.00,90.00,0.00,OPEN,0
557087.736,0,1,1,0.958,1.000,1.000,0.00,90.00,0.00,OPEN,0
557087.747,0,1,1,0.927,1.000,1.000,0.00,90.00,0.00,OPEN,0
557087.757,0,1,1,0.927,1.000,1.000,0.00,90.00,0.00,OPEN,0
557087.768,0,1,1,0.927,1.000,1.000,0.00,90.00,0.00,OPEN,0
557087.778,0,1,1,0.927,1.000,1.000,0.00,90.00,0.00,OPEN,0
557087.789,0,1,1,0.927,1.000,1.000,0.00,90.00,0.00,OPEN,0
557087.799,0,1,1,0.992,1.000,1.000,0.00,90.00,0.00,OPEN,0
557087.810,0,1,1,0.992,1.000,1.000,0.00,90.00,0.00,OPEN,0
557087.820,0,1,1,0.992,1.000,1.000,0.00,90.00,0.00,OPEN,0
557087.830,0,1,1,0.992,1.000,1.000,0.00,90.00,0.00,OPEN,0
557087.841,0,1,1,0.992,1.000,1.000,0.00,90.00,0.00,OPEN,0
557087.851,0,1,1,0.999,1.000,1.000,0.00,90.00,0.00,OPEN,0
557087.861,0,1,1,0.999,1.000,1.000,0.00,90.00,0.00,OPEN,0
557087.872,0,1,1,0.999,1.000,1.000,0.00,90.00,0.00,OPEN,0
557087.882,0,1,1,0.999,1.000,1.000,0.00,90.00,0.00,OPEN,0
557087.892,0,1,1,1.000,1.000,1.000,0.00,90.00,0.00,OPEN,0
557087.902,0,1,1,1.000,1.000,1.000,0.00,90.00,0.00,OPEN,0
557087.913,0,1,1,1.000,1.000,1.000,0.00,90.00,0.00,OPEN,0
557087.923,0,1,1,1.000,1.000,1.000,0.00,90.00,0.00,OPEN,0
557087.933,0,1,1,1.000,1.000,1.000,0.00,90.00,0.00,OPEN,0
557087.944,0,1,1,1.000,0.746,0.957,0.00,90.00,0.00,OPEN,0
557087.955,0,1,1,1.000,0.746,0.957,0.00,90.00,0.00,OPEN,0
557087.965,0,1,1,1.000,0.746,0.957,0.00,90.00,0.00,OPEN,0
557087.976,0,1,1,1.000,0.746,0.957,0.00,90.00,0.00,OPEN,0
557087.986,0,1,1,1.000,0.746,0.957,0.00,90.00,0.00,OPEN,0
557087.997,0,1,1,1.000,0.786,0.983,0.00,90.00,0.00,OPEN,0
557088.007,0,1,1,1.000,0.786,0.983,0.00,90.00,0.00,OPEN,0
557088.018,0,1,1,1.000,0.786,0.983,0.00,90.00,0.00,OPEN,0
557088.028,0,1,1,1.000,0.786,0.983,0.00,90.00,0.00,OPEN,0
557088.039,0,1,1,1.000,0.786,0.983,0.00,90.00,0.00,OPEN,0
557088.049,0,1,1,1.000,0.965,0.997,0.00,90.00,0.00,OPEN,0
557088.060,0,1,1,1.000,0.965,0.997,0.00,90.00,0.00,OPEN,0
557088.070,0,1,1,1.000,0.965,0.997,0.00,90.00,0.00,OPEN,0
557088.081,0,1,1,1.000,0.965,0.997,0.00,90.00,0.00,OPEN,0
557088.092,0,1,1,1.000,0.989,0.544,0.00,90.00,0.00,OPEN,0
557088.103,0,1,1,1.000,0.989,0.544,0.00,90.00,0.00,OPEN,0
557088.114,0,1,1,1.000,0.989,0.544,0.00,90.00,0.00,OPEN,0
557088.124,0,1,1,1.000,0.989,0.544,0.00,90.00,0.00,OPEN,0
557088.135,0,1,1,1.000,0.989,0.544,0.00,90.00,0.00,OPEN,0
557088.145,0,1,1,1.000,0.926,0.768,0.00,90.00,0.00,OPEN,0
557088.156,0,1,1,1.000,0.926,0.768,0.00,90.00,0.00,OPEN,0
557088.166,0,1,1,1.000,0.926,0.768,0.00,90.00,0.00,OPEN,0
557088.177,0,1,1,1.000,0.926,0.768,0.00,90.00,0.00,OPEN,0
557088.187,0,1,1,1.000,0.926,0.768,0.00,90.00,0.00,OPEN,0
557088.197,2,1,1,1.000,1.000,1.000,0.00,90.00,0.00,OPEN,0
557088.208,2,1,1,1.000,1.000,1.000,0.00,90.00,0.00,OPEN,0
557088.218,2,1,1,1.000,1.000,1.000,0.00,90.00,0.00,OPEN,0
557088.229,2,1,1,1.000,1.000,1.000,0.00,90.00,0.00,OPEN,0
557088.239,2,1,1,1.000,1.000,1.000,0.00,90.00,0.00,OPEN,0
557088.250,2,1,1,1.000,1.000,1.000,0.00,90.00,0.00,OPEN,0
557088.260,2,1,1,1.000,1.000,1.000,0.00,90.00,0.00,OPEN,0
557088.271,2,1,1,1.000,1.000,1.000,0.00,90.00,0.00,OPEN,0
557088.281,2,1,1,1.000,1.000,1.000,0.00,90.00,0.00,OPEN,0
557088.292,2,1,1,1.000,1.000,1.000,0.00,90.00,0.00,OPEN,0
557088.303,2,1,1,1.000,1.000,1.000,0.00,90.00,0.00,OPEN,0
557088.313,2,1,1,1.000,1.000,1.000,0.00,90.00,0.00,OPEN,0
557088.324,2,1,1,1.000,1.000,1.000,0.00,90.00,0.00,OPEN,0
557088.335,2,1,1,1.000,1.000,1.000,0.00,90.00,0.00,OPEN,0
557088.345,2,1,1,1.000,0.998,0.991,0.00,90.00,0.00,OPEN,0
557088.356,2,1,1,1.000,0.998,0.991,0.00,90.00,0.00,OPEN,0
557088.366,2,1,1,1.000,0.998,0.991,0.00,90.00,0.00,OPEN,0
557088.377,2,1,1,1.000,0.998,0.991,0.00,90.00,0.00,OPEN,0
557088.387,2,1,1,1.000,0.998,0.991,0.00,90.00,0.00,OPEN,0
557088.398,2,1,1,1.000,0.999,0.965,0.00,90.00,0.00,OPEN,0
557088.408,2,1,1,1.000,0.999,0.965,0.00,90.00,0.00,OPEN,0
557088.419,2,1,1,1.000,0.999,0.965,0.00,90.00,0.00,OPEN,0
557088.430,2,1,1,1.000,0.999,0.965,0.00,90.00,0.00,OPEN,0
557088.440,2,1,1,1.000,0.999,0.965,0.00,90.00,0.00,OPEN,0
557088.450,2,1,1,1.000,0.999,0.957,0.00,90.00,0.00,OPEN,0
557088.461,2,1,1,1.000,0.999,0.957,0.00,90.00,0.00,OPEN,0
557088.471,2,1,1,1.000,0.999,0.957,0.00,90.00,0.00,OPEN,0
557088.482,2,1,1,1.000,0.999,0.957,0.00,90.00,0.00,OPEN,0
557088.492,2,1,1,1.000,0.993,0.898,0.00,90.00,0.00,OPEN,0
557088.502,2,1,1,1.000,0.993,0.898,0.00,90.00,0.00,OPEN,0
557088.513,2,1,1,1.000,0.993,0.898,0.00,90.00,0.00,OPEN,0
557088.523,2,1,1,1.000,0.993,0.898,0.00,90.00,0.00,OPEN,0
557088.534,2,1,1,1.000,0.993,0.898,0.00,90.00,0.00,OPEN,0
557088.544,2,1,1,1.000,0.524,0.686,0.00,90.00,0.00,OPEN,0
557088.555,2,1,1,1.000,0.524,0.686,0.00,90.00,0.00,OPEN,0
557088.565,2,1,1,1.000,0.524,0.686,0.00,90.00,0.00,OPEN,0
557088.576,2,1,1,1.000,0.524,0.686,0.00,90.00,0.00,OPEN,0
557088.586,2,1,1,1.000,0.524,0.686,0.00,90.00,0.00,OPEN,0
557088.596,2,1,1,1.000,1.000,1.000,0.00,90.00,0.00,OPEN,0
557088.607,2,1,1,1.000,1.000,1.000,0.00,90.00,0.00,OPEN,0
557088.618,2,1,1,1.000,1.000,1.000,0.00,90.00,0.00,OPEN,0
557088.628,2,1,1,1.000,1.000,1.000,0.00,90.00,0.00,OPEN,0
557088.638,2,1,1,1.000,1.000,1.000,0.00,90.00,0.00,OPEN,0
557088.648,2,1,1,1.000,1.000,1.000,0.00,90.00,0.00,OPEN,0
557088.659,2,1,1,1.000,1.000,1.000,0.00,90.00,0.00,OPEN,0
557088.669,2,1,1,1.000,1.000,1.000,0.00,90.00,0.00,OPEN,0
557088.679,2,1,1,1.000,1.000,1.000,0.00,90.00,0.00,OPEN,0
557088.690,2,1,1,1.000,1.000,1.000,0.00,90.00,0.00,OPEN,0
557088.701,2,1,1,1.000,1.000,1.000,0.00,90.00,0.00,OPEN,0
557088.711,2,1,1,1.000,1.000,1.000,0.00,90.00,0.00,OPEN,0
557088.722,2,1,1,1.000,1.000,1.000,0.00,90.00,0.00,OPEN,0
557088.732,2,1,1,1.000,1.000,1.000,0.00,90.00,0.00,OPEN,0
557088.742,2,1,1,1.000,1.000,1.000,0.00,90.00,0.00,OPEN,0
557088.753,2,1,1,1.000,1.000,1.000,0.00,90.00,0.00,OPEN,0
557088.763,2,1,1,1.000,1.000,1.000,0.00,90.00,0.00,OPEN,0
557088.774,2,1,1,1.000,1.000,1.000,0.00,90.00,0.00,OPEN,0
557088.784,2,1,1,1.000,1.000,1.000,0.00,90.00,0.00,OPEN,0
557088.795,2,1,1,1.000,1.000,1.000,0.00,90.00,0.00,OPEN,0
557088.805,2,1,1,1.000,1.000,1.000,0.00,90.00,0.00,OPEN,0
557088.816,2,1,1,1.000,1.000,1.000,0.00,90.00,0.00,OPEN,0
557088.826,2,1,1,1.000,1.000,1.000,0.00,90.00,0.00,OPEN,0
557088.837,2,1,1,1.000,1.000,1.000,0.00,90.00,0.00,OPEN,0
557088.847,2,1,1,1.000,1.000,1.000,0.00,90.00,0.00,OPEN,0
557088.857,2,1,1,1.000,1.000,1.000,0.00,90.00,0.00,OPEN,0
557088.868,2,1,1,1.000,1.000,1.000,0.00,90.00,0.00,OPEN,0
557088.879,2,1,1,1.000,1.000,1.000,0.00,90.00,0.00,OPEN,0
557088.889,2,1,1,1.000,1.000,1.000,0.00,90.00,0.00,OPEN,0
557088.900,2,1,1,1.000,1.000,1.000,0.00,90.00,0.00,OPEN,0
557088.910,2,1,1,1.000,1.000,1.000,0.00,90.00,0.00,OPEN,0
557088.921,2,1,1,1.000,1.000,1.000,0.00,90.00,0.00,OPEN,0
557088.931,2,1,1,1.000,1.000,1.000,0.00,90.00,0.00,OPEN,0
557088.941,2,1,1,1.000,1.000,1.000,0.00,90.00,0.00,OPEN,0
557088.952,2,1,0,1.000,1.000,1.000,-90.00,90.00,0.00,OPEN,0
557088.963,2,1,0,1.000,1.000,1.000,-90.00,90.00,0.00,OPEN,0
557088.974,2,1,0,1.000,1.000,1.000,-90.00,90.00,0.00,OPEN,0
557088.984,2,1,0,1.000,1.000,1.000,-90.00,90.00,0.00,OPEN,0
557088.995,2,0,0,1.000,1.000,1.000,-90.00,180.00,0.00,OPEN,0
557089.005,2,0,0,1.000,1.000,1.000,-90.00,180.00,0.00,OPEN,0
557089.016,2,0,0,1.000,1.000,1.000,-90.00,180.00,0.00,OPEN,0
557089.026,2,0,0,1.000,1.000,1.000,-90.00,180.00,0.00,OPEN,0
557089.037,2,0,0,1.000,1.000,1.000,-90.00,180.00,0.00,OPEN,0
557089.047,2,0,0,1.000,1.000,1.000,-90.00,180.00,0.00,OPEN,0
557089.058,2,0,0,1.000,1.000,1.000,-90.00,180.00,0.00,OPEN,0
557089.068,2,0,0,1.000,1.000,1.000,-90.00,180.00,0.00,OPEN,0
557089.079,2,0,0,1.000,1.000,1.000,-90.00,180.00,0.00,OPEN,0
557089.090,2,0,0,1.000,1.000,1.000,-90.00,180.00,0.00,OPEN,0
557089.100,2,0,0,1.000,1.000,1.000,-90.00,180.00,0.00,OPEN,0
557089.111,2,0,0,1.000,1.000,1.000,-90.00,180.00,0.00,OPEN,0
557089.122,2,0,0,1.000,1.000,1.000,-90.00,180.00,0.00,OPEN,0
557089.132,2,0,0,1.000,1.000,1.000,-90.00,180.00,0.00,OPEN,0
557089.143,2,0,0,1.000,1.000,1.000,-90.00,180.00,0.00,OPEN,0
557089.154,2,0,0,1.000,1.000,1.000,-90.00,180.00,0.00,OPEN,0
557089.164,2,0,0,1.000,1.000,1.000,-90.00,180.00,0.00,OPEN,0
557089.175,2,0,0,1.000,1.000,1.000,-90.00,180.00,0.00,OPEN,0
557089.186,2,0,0,1.000,1.000,1.000,-90.00,180.00,0.00,OPEN,0
557089.196,2,0,0,1.000,1.000,1.000,-90.00,180.00,0.00,OPEN,0
557089.207,2,0,0,1.000,1.000,1.000,-90.00,180.00,0.00,OPEN,0
557089.218,2,0,0,1.000,1.000,1.000,-90.00,180.00,0.00,OPEN,0
557089.228,2,0,0,1.000,1.000,1.000,-90.00,180.00,0.00,OPEN,0
557089.239,2,0,0,1.000,1.000,1.000,-90.00,180.00,0.00,OPEN,0
557089.249,2,0,0,1.000,1.000,1.000,-90.00,180.00,0.00,OPEN,0
557089.260,2,0,0,1.000,1.000,1.000,-90.00,180.00,0.00,OPEN,0
557089.270,2,0,0,1.000,1.000,1.000,-90.00,180.00,0.00,OPEN,0
557089.281,2,0,0,1.000,1.000,1.000,-90.00,180.00,0.00,OPEN,0
557089.292,2,0,0,1.000,1.000,1.000,-90.00,180.00,0.00,OPEN,0
557089.302,2,0,0,1.000,1.000,1.000,-90.00,180.00,0.00,OPEN,0
557089.313,2,0,0,1.000,1.000,1.000,-90.00,180.00,0.00,OPEN,0
557089.323,2,0,0,1.000,1.000,1.000,-90.00,180.00,0.00,OPEN,0
557089.334,2,0,0,1.000,1.000,1.000,-90.00,180.00,0.00,OPEN,0
557089.344,2,0,0,1.000,1.000,1.000,-90.00,180.00,0.00,OPEN,0
557089.355,2,0,0,1.000,1.000,1.000,-90.00,180.00,0.00,OPEN,0
557089.366,2,0,0,1.000,1.000,1.000,-90.00,180.00,0.00,OPEN,0
557089.377,2,0,0,1.000,1.000,1.000,-90.00,180.00,0.00,OPEN,0
557089.387,2,0,0,1.000,1.000,1.000,-90.00,180.00,0.00,OPEN,0
557089.398,2,0,0,1.000,1.000,1.000,-90.00,180.00,0.00,OPEN,0
557089.408,2,0,0,1.000,1.000,1.000,-90.00,180.00,0.00,OPEN,0
557089.419,2,0,0,1.000,1.000,1.000,-90.00,180.00,0.00,OPEN,0
557089.429,2,0,0,1.000,1.000,1.000,-90.00,180.00,0.00,OPEN,0
557089.440,2,0,0,1.000,1.000,1.000,-90.00,180.00,0.00,OPEN,0
557089.451,2,0,0,1.000,1.000,1.000,-90.00,180.00,0.00,OPEN,0
557089.461,2,0,0,1.000,1.000,1.000,-90.00,180.00,0.00,OPEN,0
557089.472,2,0,0,1.000,1.000,1.000,-90.00,180.00,0.00,OPEN,0
557089.483,2,0,0,1.000,1.000,1.000,-90.00,180.00,0.00,OPEN,0
557089.493,2,0,0,1.000,1.000,1.000,-90.00,180.00,0.00,OPEN,0
557089.503,2,0,0,1.000,1.000,1.000,-90.00,180.00,0.00,OPEN,0
557089.514,2,0,0,1.000,1.000,1.000,-90.00,180.00,0.00,OPEN,0
557089.525,2,0,0,1.000,1.000,1.000,-90.00,180.00,0.00,OPEN,0
557089.535,2,0,0,1.000,1.000,1.000,-90.00,180.00,0.00,OPEN,0
557089.546,2,0,0,1.000,1.000,1.000,-90.00,180.00,0.00,OPEN,0
557089.556,2,0,0,1.000,1.000,1.000,-90.00,180.00,0.00,OPEN,0
557089.567,2,0,0,1.000,1.000,1.000,-90.00,180.00,0.00,OPEN,0
557089.577,2,0,0,1.000,1.000,1.000,-90.00,180.00,0.00,OPEN,0
557089.588,2,0,0,1.000,1.000,1.000,-90.00,180.00,0.00,OPEN,0
557089.598,2,0,0,1.000,1.000,1.000,-90.00,180.00,0.00,OPEN,0
557089.609,2,0,0,1.000,1.000,1.000,-90.00,180.00,0.00,OPEN,0
557089.619,2,0,0,1.000,1.000,1.000,-90.00,180.00,0.00,OPEN,0
557089.630,2,0,0,1.000,1.000,1.000,-90.00,180.00,0.00,OPEN,0
557089.640,2,0,0,1.000,1.000,1.000,-90.00,180.00,0.00,OPEN,0
557089.651,2,0,0,1.000,1.000,1.000,-90.00,180.00,0.00,OPEN,0
557089.661,2,0,0,1.000,1.000,1.000,-90.00,180.00,0.00,OPEN,0
557089.671,2,0,0,1.000,1.000,1.000,-90.00,180.00,0.00,OPEN,0
557089.682,2,0,0,1.000,1.000,1.000,-90.00,180.00,0.00,OPEN,0
557089.693,2,0,0,1.000,1.000,1.000,-90.00,180.00,0.00,OPEN,0
557089.703,2,0,0,1.000,1.000,1.000,-90.00,180.00,0.00,OPEN,0
557089.714,2,0,0,1.000,1.000,1.000,-90.00,180.00,0.00,OPEN,0
557089.724,2,0,0,1.000,1.000,1.000,-90.00,180.00,0.00,OPEN,0
557089.735,2,0,0,1.000,1.000,1.000,-90.00,180.00,0.00,OPEN,0
557089.745,2,0,0,1.000,1.000,1.000,-90.00,180.00,0.00,OPEN,0
557089.755,2,0,0,1.000,1.000,1.000,-90.00,180.00,0.00,OPEN,0
557089.766,2,0,0,1.000,1.000,1.000,-90.00,180.00,0.00,OPEN,0
557089.782,2,0,0,1.000,1.000,1.000,-90.00,180.00,0.00,OPEN,0
557089.792,2,0,0,1.000,1.000,1.000,-90.00,180.00,0.00,OPEN,0
557089.803,2,0,0,1.000,1.000,1.000,-90.00,180.00,0.00,OPEN,0
557089.813,2,0,0,1.000,1.000,1.000,-90.00,180.00,0.00,OPEN,0
557089.824,2,0,0,1.000,1.000,1.000,-90.00,180.00,0.00,OPEN,0
557089.834,2,0,0,1.000,1.000,1.000,-90.00,180.00,0.00,OPEN,0
557089.844,2,0,0,1.000,1.000,1.000,-90.00,180.00,0.00,OPEN,0
557089.855,2,0,0,1.000,1.000,1.000,-90.00,180.00,0.00,OPEN,0
557089.866,2,0,0,1.000,1.000,1.000,-90.00,180.00,0.00,OPEN,0
557089.876,2,0,0,1.000,1.000,1.000,-90.00,180.00,0.00,OPEN,0
557089.887,2,0,0,1.000,1.000,1.000,-90.00,180.00,0.00,OPEN,0
557089.897,2,0,0,1.000,1.000,1.000,-90.00,180.00,0.00,OPEN,0
557089.908,2,0,0,1.000,1.000,1.000,-90.00,180.00,0.00,OPEN,0
557089.919,2,0,0,1.000,1.000,1.000,-90.00,180.00,0.00,OPEN,0
557089.930,2,0,0,1.000,1.000,1.000,-90.00,180.00,0.00,OPEN,0
557089.940,2,0,0,1.000,1.000,1.000,-90.00,180.00,0.00,OPEN,0
557089.951,2,0,0,1.000,1.000,1.000,-90.00,180.00,0.00,OPEN,0
557089.961,2,0,0,1.000,1.000,1.000,-90.00,180.00,0.00,OPEN,0
557089.972,2,0,0,1.000,1.000,1.000,-90.00,180.00,0.00,OPEN,0
557089.982,2,0,0,1.000,1.000,1.000,-90.00,180.00,0.00,OPEN,0
557089.993,2,0,0,1.000,1.000,1.000,-90.00,180.00,0.00,OPEN,0
557090.003,2,0,0,1.000,1.000,1.000,-90.00,180.00,0.00,OPEN,0
557090.014,2,0,0,1.000,1.000,1.000,-90.00,180.00,0.00,OPEN,0
557090.024,2,0,0,1.000,1.000,1.000,-90.00,180.00,0.00,OPEN,0
557090.035,2,0,0,1.000,1.000,1.000,-90.00,180.00,0.00,OPEN,0
557090.045,2,0,0,1.000,1.000,1.000,-90.00,180.00,0.00,OPEN,0
557090.056,2,0,0,1.000,1.000,1.000,-90.00,180.00,0.00,OPEN,0
557090.066,2,0,0,1.000,1.000,1.000,-90.00,180.00,0.00,OPEN,0
557090.077,2,0,0,1.000,1.000,1.000,-90.00,180.00,0.00,OPEN,0
557090.087,2,0,0,1.000,1.000,1.000,-90.00,180.00,0.00,OPEN,0
557090.098,2,0,0,1.000,1.000,1.000,-90.00,180.00,0.00,OPEN,0
557090.109,2,0,0,1.000,1.000,1.000,-90.00,180.00,0.00,OPEN,0
557090.119,2,0,0,1.000,1.000,1.000,-90.00,180.00,0.00,OPEN,0
557090.130,2,0,0,1.000,1.000,1.000,-90.00,180.00,0.00,OPEN,0
557090.141,2,0,0,1.000,1.000,1.000,-90.00,180.00,0.00,OPEN,0
557090.152,2,0,0,1.000,1.000,1.000,-90.00,180.00,0.00,OPEN,0
557090.162,2,0,0,1.000,1.000,1.000,-90.00,180.00,0.00,OPEN,0
557090.173,2,0,0,1.000,1.000,1.000,-90.00,180.00,0.00,OPEN,0
557090.183,2,0,0,1.000,1.000,1.000,-90.00,180.00,0.00,OPEN,0
557090.194,2,0,0,1.000,1.000,1.000,-90.00,180.00,0.00,OPEN,0
557090.204,2,0,0,1.000,1.000,1.000,-90.00,180.00,0.00,OPEN,0
557090.215,2,0,0,1.000,1.000,1.000,-90.00,180.00,0.00,OPEN,0
557090.225,2,0,0,1.000,1.000,1.000,-90.00,180.00,0.00,OPEN,0
557090.235,2,0,0,1.000,1.000,1.000,-90.00,180.00,0.00,OPEN,0
557090.246,2,0,0,1.000,1.000,1.000,-90.00,180.00,0.00,OPEN,0
557090.256,2,0,0,1.000,1.000,1.000,-90.00,180.00,0.00,OPEN,0
557090.267,2,0,0,1.000,1.000,1.000,-90.00,180.00,0.00,OPEN,0
557090.277,2,0,0,1.000,1.000,1.000,-90.00,180.00,0.00,OPEN,0
557090.287,2,0,0,1.000,1.000,1.000,-90.00,180.00,0.00,OPEN,0
557090.298,2,0,0,1.000,1.000,1.000,-90.00,180.00,0.00,OPEN,0
557090.308,2,0,0,1.000,1.000,1.000,-90.00,180.00,0.00,OPEN,0
557090.319,2,0,0,1.000,1.000,1.000,-90.00,180.00,0.00,OPEN,0
557090.329,2,0,0,1.000,1.000,1.000,-90.00,180.00,0.00,OPEN,0
557090.340,2,0,0,1.000,1.000,1.000,-90.00,180.00,0.00,OPEN,0
557090.350,2,0,0,1.000,1.000,1.000,-90.00,180.00,0.00,OPEN,0
557090.361,2,0,0,1.000,1.000,1.000,-90.00,180.00,0.00,OPEN,0
557090.371,2,0,0,1.000,1.000,1.000,-90.00,180.00,0.00,OPEN,0
557090.382,2,0,0,1.000,1.000,1.000,-90.00,180.00,0.00,OPEN,0
557090.392,2,0,0,1.000,1.000,1.000,-90.00,180.00,0.00,OPEN,0
557090.402,2,0,0,1.000,1.000,1.000,-90.00,180.00,0.00,OPEN,0
557090.413,2,0,0,1.000,1.000,1.000,-90.00,180.00,0.00,OPEN,0
557090.423,2,0,0,1.000,1.000,1.000,-90.00,180.00,0.00,OPEN,0
557090.434,2,0,0,1.000,1.000,1.000,-90.00,180.00,0.00,OPEN,0
557090.444,2,0,0,1.000,1.000,1.000,-90.00,180.00,0.00,OPEN,0
557090.455,2,0,0,1.000,1.000,1.000,-90.00,180.00,0.00,OPEN,0
557090.465,2,0,0,1.000,1.000,1.000,-90.00,180.00,0.00,OPEN,0
557090.475,2,0,0,1.000,1.000,1.000,-90.00,180.00,0.00,OPEN,0
557090.486,2,0,0,1.000,1.000,1.000,-90.00,180.00,0.00,OPEN,0
557090.496,2,0,0,1.000,1.000,1.000,-90.00,180.00,0.00,OPEN,0
557090.507,2,0,0,1.000,1.000,1.000,-90.00,180.00,0.00,OPEN,0
557090.518,2,0,0,1.000,1.000,1.000,-90.00,180.00,0.00,OPEN,0
557090.528,2,0,0,1.000,1.000,1.000,-90.00,180.00,0.00,OPEN,0
557090.539,2,0,0,1.000,1.000,1.000,-90.00,180.00,0.00,OPEN,0
557090.549,2,0,0,1.000,1.000,1.000,-90.00,180.00,0.00,OPEN,0
557090.560,2,0,0,1.000,1.000,1.000,-90.00,180.00,0.00,OPEN,0
557090.570,2,0,0,1.000,1.000,1.000,-90.00,180.00,0.00,OPEN,0
557090.581,2,0,0,1.000,1.000,1.000,-90.00,180.00,0.00,OPEN,0
557090.591,2,0,0,1.000,1.000,1.000,-90.00,180.00,0.00,OPEN,0
557090.602,2,0,0,1.000,1.000,1.000,-90.00,180.00,0.00,OPEN,0
557090.613,2,0,0,1.000,1.000,1.000,-90.00,180.00,0.00,OPEN,0
557090.623,2,0,0,1.000,1.000,1.000,-90.00,180.00,0.00,OPEN,0
557090.634,2,0,0,1.000,1.000,1.000,-90.00,180.00,0.00,OPEN,0
557090.644,2,0,0,1.000,1.000,1.000,-90.00,180.00,0.00,OPEN,0
557090.655,2,0,0,1.000,1.000,1.000,-90.00,180.00,0.00,OPEN,0
557090.665,2,0,0,1.000,1.000,1.000,-90.00,180.00,0.00,OPEN,0
557090.676,2,0,0,1.000,1.000,1.000,-90.00,180.00,0.00,OPEN,0
557090.686,2,0,0,1.000,1.000,1.000,-90.00,180.00,0.00,OPEN,0
557090.697,2,0,0,1.000,1.000,1.000,-90.00,180.00,0.00,OPEN,0
557090.707,2,0,0,1.000,1.000,1.000,-90.00,180.00,0.00,OPEN,0
557090.718,2,0,0,1.000,1.000,1.000,-90.00,180.00,0.00,OPEN,0
557090.729,2,0,0,1.000,1.000,1.000,-90.00,180.00,0.00,OPEN,0
557090.739,2,0,0,1.000,1.000,1.000,-90.00,180.00,0.00,OPEN,0
557090.750,2,0,0,1.000,1.000,1.000,-90.00,180.00,0.00,OPEN,0
557090.761,2,0,0,1.000,1.000,1.000,-90.00,180.00,0.00,OPEN,0
557090.772,2,0,0,1.000,1.000,1.000,-90.00,180.00,0.00,OPEN,0
557090.782,2,0,0,1.000,1.000,1.000,-90.00,180.00,0.00,OPEN,0
557090.793,2,0,0,1.000,1.000,1.000,-90.00,180.00,0.00,OPEN,0
557090.803,2,0,0,1.000,1.000,1.000,-90.00,180.00,0.00,OPEN,0
557090.814,2,0,0,1.000,1.000,1.000,-90.00,180.00,0.00,OPEN,0
557090.824,2,0,0,1.000,1.000,1.000,-90.00,180.00,0.00,OPEN,0
557090.835,2,0,0,1.000,1.000,1.000,-90.00,180.00,0.00,OPEN,0
557090.845,2,0,0,1.000,1.000,1.000,-90.00,180.00,0.00,OPEN,0
557090.856,2,0,0,1.000,1.000,1.000,-90.00,180.00,0.00,OPEN,0
557090.867,2,0,0,1.000,1.000,1.000,-90.00,180.00,0.00,OPEN,0
557090.877,2,0,0,1.000,1.000,1.000,-90.00,180.00,0.00,OPEN,0
557090.887,2,0,0,1.000,1.000,1.000,-90.00,180.00,0.00,OPEN,0
557090.898,2,0,0,1.000,1.000,1.000,-90.00,180.00,0.00,OPEN,0
557090.908,2,0,0,1.000,1.000,1.000,-90.00,180.00,0.00,OPEN,0
557090.919,2,0,0,1.000,1.000,1.000,-90.00,180.00,0.00,OPEN,0
557090.929,2,0,0,1.000,1.000,1.000,-90.00,180.00,0.00,OPEN,0
557090.940,2,0,0,1.000,1.000,1.000,-90.00,180.00,0.00,OPEN,0
557090.951,2,0,0,1.000,1.000,1.000,-90.00,180.00,0.00,OPEN,0
557090.961,2,0,0,1.000,1.000,1.000,-90.00,180.00,0.00,OPEN,0
557090.971,2,0,0,1.000,1.000,1.000,-90.00,180.00,0.00,OPEN,0
557090.982,2,0,0,1.000,1.000,1.000,-90.00,180.00,0.00,OPEN,0
557090.992,2,0,0,1.000,1.000,1.000,-90.00,180.00,0.00,OPEN,0
557091.003,2,0,0,1.000,1.000,1.000,-90.00,180.00,0.00,OPEN,0
557091.014,2,0,0,1.000,1.000,1.000,-90.00,180.00,0.00,OPEN,0
557091.024,2,0,0,1.000,1.000,1.000,-90.00,180.00,0.00,OPEN,0
557091.035,2,0,0,1.000,1.000,1.000,-90.00,180.00,0.00,OPEN,0
557091.045,2,0,0,1.000,1.000,1.000,-90.00,180.00,0.00,OPEN,0
557091.056,2,0,0,1.000,1.000,1.000,-90.00,180.00,0.00,OPEN,0
557091.066,2,0,0,1.000,1.000,1.000,-90.00,180.00,0.00,OPEN,0
557091.076,2,0,0,1.000,1.000,1.000,-90.00,180.00,0.00,OPEN,0
557091.087,2,0,0,1.000,1.000,1.000,-90.00,180.00,0.00,OPEN,0
557091.098,2,0,0,1.000,1.000,1.000,-90.00,180.00,0.00,OPEN,0
557091.108,2,0,0,1.000,1.000,1.000,-90.00,180.00,0.00,OPEN,0
557091.119,2,0,0,1.000,1.000,1.000,-90.00,180.00,0.00,OPEN,0
557091.129,2,0,0,1.000,1.000,1.000,-90.00,180.00,0.00,OPEN,0
557091.140,2,0,0,1.000,1.000,1.000,-90.00,180.00,0.00,OPEN,0
557091.151,2,0,0,1.000,1.000,1.000,-90.00,180.00,0.00,OPEN,0
557091.161,2,0,0,1.000,1.000,1.000,-90.00,180.00,0.00,OPEN,0
557091.172,2,0,0,1.000,1.000,1.000,-90.00,180.00,0.00,OPEN,0
557091.182,2,0,0,1.000,1.000,1.000,-90.00,180.00,0.00,OPEN,0
557091.193,2,0,0,1.000,1.000,1.000,-90.00,180.00,0.00,OPEN,0
557091.203,2,0,0,1.000,1.000,1.000,-90.00,180.00,0.00,OPEN,0
557091.214,2,0,0,1.000,1.000,1.000,-90.00,180.00,0.00,OPEN,0
557091.225,2,0,0,1.000,1.000,1.000,-90.00,180.00,0.00,OPEN,0
557091.235,2,0,0,1.000,1.000,1.000,-90.00,180.00,0.00,OPEN,0
557091.246,2,0,0,1.000,1.000,1.000,-90.00,180.00,0.00,OPEN,0
557091.256,2,0,0,1.000,1.000,1.000,-90.00,180.00,0.00,OPEN,0
557091.267,2,0,0,1.000,1.000,1.000,-90.00,180.00,0.00,OPEN,0
557091.277,2,0,0,1.000,1.000,1.000,-90.00,180.00,0.00,OPEN,0
557091.288,2,0,0,1.000,1.000,1.000,-90.00,180.00,0.00,OPEN,0
557091.299,2,0,0,1.000,1.000,1.000,-90.00,180.00,0.00,OPEN,0
557091.309,2,0,0,1.000,1.000,1.000,-90.00,180.00,0.00,OPEN,0
557091.319,2,0,0,1.000,1.000,1.000,-90.00,180.00,0.00,OPEN,0
557091.330,2,0,0,1.000,1.000,1.000,-90.00,180.00,0.00,OPEN,0
557091.340,2,0,0,1.000,1.000,1.000,-90.00,180.00,0.00,OPEN,0
557091.351,2,0,0,1.000,1.000,1.000,-90.00,180.00,0.00,OPEN,0
557091.362,2,0,0,1.000,1.000,1.000,-90.00,180.00,0.00,OPEN,0
557091.372,2,0,0,1.000,1.000,1.000,-90.00,180.00,0.00,OPEN,0
557091.383,2,0,0,1.000,1.000,1.000,-90.00,180.00,0.00,OPEN,0
557091.393,2,0,0,1.000,1.000,1.000,-90.00,180.00,0.00,OPEN,0
557091.404,2,0,0,1.000,1.000,1.000,-90.00,180.00,0.00,OPEN,0
557091.415,2,0,0,1.000,1.000,1.000,-90.00,180.00,0.00,OPEN,0
557091.425,2,0,0,1.000,1.000,1.000,-90.00,180.00,0.00,OPEN,0
557091.436,2,0,0,1.000,1.000,1.000,-90.00,180.00,0.00,OPEN,0
557091.446,2,0,0,1.000,1.000,1.000,-90.00,180.00,0.00,OPEN,0
557091.457,2,0,0,1.000,1.000,1.000,-90.00,180.00,0.00,OPEN,0
557091.468,2,0,0,1.000,1.000,1.000,-90.00,180.00,0.00,OPEN,0
557091.479,2,0,0,1.000,1.000,1.000,-90.00,180.00,0.00,OPEN,0
557091.489,2,0,0,1.000,1.000,1.000,-90.00,180.00,0.00,OPEN,0
557091.500,2,0,0,1.000,1.000,1.000,-90.00,180.00,0.00,OPEN,0
557091.510,2,0,0,1.000,1.000,1.000,-90.00,180.00,0.00,OPEN,0
557091.521,2,0,0,1.000,1.000,1.000,-90.00,180.00,0.00,OPEN,0
557091.531,2,0,0,1.000,1.000,1.000,-90.00,180.00,0.00,OPEN,0
557091.542,2,0,0,1.000,1.000,1.000,-90.00,180.00,0.00,OPEN,0
557091.552,2,0,0,1.000,1.000,1.000,-90.00,180.00,0.00,OPEN,0
557091.563,2,0,0,1.000,1.000,1.000,-90.00,180.00,0.00,OPEN,0
557091.573,2,0,0,1.000,1.000,1.000,-90.00,180.00,0.00,OPEN,0
557091.584,2,0,0,1.000,1.000,1.000,-90.00,180.00,0.00,OPEN,0
557091.594,2,0,0,1.000,1.000,1.000,-90.00,180.00,0.00,OPEN,0
557091.605,2,0,0,1.000,1.000,1.000,-90.00,180.00,0.00,OPEN,0
557091.615,2,0,0,1.000,1.000,1.000,-90.00,180.00,0.00,OPEN,0
557091.626,2,0,0,1.000,1.000,1.000,-90.00,180.00,0.00,OPEN,0
557091.636,2,0,0,1.000,1.000,1.000,-90.00,180.00,0.00,OPEN,0
557091.647,2,0,0,1.000,1.000,1.000,-90.00,180.00,0.00,OPEN,0
557091.657,2,0,0,1.000,1.000,1.000,-90.00,180.00,0.00,OPEN,0
557091.668,2,0,0,1.000,1.000,1.000,-90.00,180.00,0.00,OPEN,0
557091.678,2,0,0,1.000,1.000,1.000,-90.00,180.00,0.00,OPEN,0
557091.689,2,0,0,1.000,1.000,1.000,-90.00,180.00,0.00,OPEN,0
557091.700,2,0,0,1.000,1.000,1.000,-90.00,180.00,0.00,OPEN,0
557091.711,2,0,0,1.000,1.000,1.000,-90.00,180.00,0.00,OPEN,0
557091.722,2,0,0,1.000,1.000,1.000,-90.00,180.00,0.00,OPEN,0
557091.732,2,0,0,1.000,1.000,1.000,-90.00,180.00,0.00,OPEN,0
557091.743,2,0,0,1.000,1.000,1.000,-90.00,180.00,0.00,OPEN,0
557091.753,2,0,0,1.000,1.000,1.000,-90.00,180.00,0.00,OPEN,0
557091.764,2,0,0,1.000,1.000,1.000,-90.00,180.00,0.00,OPEN,0
557091.775,2,0,0,1.000,1.000,1.000,-90.00,180.00,0.00,OPEN,0
557091.785,2,0,0,1.000,1.000,1.000,-90.00,180.00,0.00,OPEN,0
557091.796,2,0,0,1.000,1.000,1.000,-90.00,180.00,0.00,OPEN,0
557091.806,2,0,0,1.000,1.000,1.000,-90.00,180.00,0.00,OPEN,0
557091.817,2,0,0,1.000,1.000,1.000,-90.00,180.00,0.00,OPEN,0
557091.827,2,0,0,1.000,1.000,1.000,-90.00,180.00,0.00,OPEN,0
557091.837,2,0,0,1.000,1.000,1.000,-90.00,180.00,0.00,OPEN,0
557091.848,2,0,0,1.000,1.000,1.000,-90.00,180.00,0.00,OPEN,0
557091.858,2,0,0,1.000,1.000,1.000,-90.00,180.00,0.00,OPEN,0
557091.869,2,0,0,1.000,1.000,1.000,-90.00,180.00,0.00,OPEN,0
557091.879,2,0,0,1.000,1.000,1.000,-90.00,180.00,0.00,OPEN,0
557091.889,2,0,0,1.000,1.000,1.000,-90.00,180.00,0.00,OPEN,0
557091.900,2,0,0,1.000,1.000,1.000,-90.00,180.00,0.00,OPEN,0
557091.911,2,0,0,1.000,1.000,1.000,-90.00,180.00,0.00,OPEN,0
557091.921,2,0,0,1.000,1.000,1.000,-90.00,180.00,0.00,OPEN,0
557091.932,2,0,0,1.000,1.000,1.000,-90.00,180.00,0.00,OPEN,0
557091.943,2,0,0,1.000,1.000,1.000,-90.00,180.00,0.00,OPEN,0
557091.953,2,0,0,1.000,1.000,1.000,-90.00,180.00,0.00,OPEN,0
557091.964,2,0,0,1.000,1.000,1.000,-90.00,180.00,0.00,OPEN,0
557091.974,2,0,0,1.000,1.000,1.000,-90.00,180.00,0.00,OPEN,0
557091.985,2,0,0,1.000,1.000,1.000,-90.00,180.00,0.00,OPEN,0
557091.995,2,0,0,1.000,1.000,1.000,-90.00,180.00,0.00,OPEN,0
557092.006,2,0,0,1.000,1.000,1.000,-90.00,180.00,0.00,OPEN,0
557092.017,2,0,0,1.000,1.000,1.000,-90.00,180.00,0.00,OPEN,0
557092.027,2,0,0,1.000,1.000,1.000,-90.00,180.00,0.00,OPEN,0
557092.038,2,0,0,1.000,1.000,1.000,-90.00,180.00,0.00,OPEN,0
557092.048,2,0,0,1.000,1.000,1.000,-90.00,180.00,0.00,OPEN,0
557092.059,2,0,0,1.000,1.000,1.000,-90.00,180.00,0.00,OPEN,0
557092.070,2,0,0,1.000,1.000,1.000,-90.00,180.00,0.00,OPEN,0
557092.081,2,0,0,1.000,1.000,1.000,-90.00,180.00,0.00,OPEN,0
557092.091,2,0,0,1.000,1.000,1.000,-90.00,180.00,0.00,OPEN,0
557092.102,2,0,0,1.000,1.000,1.000,-90.00,180.00,0.00,OPEN,0
557092.112,2,0,0,1.000,1.000,1.000,-90.00,180.00,0.00,OPEN,0
557092.123,2,0,0,1.000,1.000,1.000,-90.00,180.00,0.00,OPEN,0
557092.133,2,0,0,1.000,1.000,1.000,-90.00,180.00,0.00,OPEN,0
557092.144,2,0,0,1.000,1.000,1.000,-90.00,180.00,0.00,OPEN,0
557092.154,2,0,0,1.000,1.000,1.000,-90.00,180.00,0.00,OPEN,0
557092.165,2,0,0,1.000,1.000,1.000,-90.00,180.00,0.00,OPEN,0
557092.175,2,0,0,1.000,1.000,1.000,-90.00,180.00,0.00,OPEN,0
557092.186,2,0,0,1.000,1.000,1.000,-90.00,180.00,0.00,OPEN,0
557092.197,2,0,0,1.000,1.000,1.000,-90.00,180.00,0.00,OPEN,0
557092.207,2,0,0,1.000,1.000,1.000,-90.00,180.00,0.00,OPEN,0
557092.218,2,0,0,1.000,1.000,1.000,-90.00,180.00,0.00,OPEN,0
557092.228,2,0,0,1.000,1.000,1.000,-90.00,180.00,0.00,OPEN,0
557092.238,2,0,0,1.000,1.000,1.000,-90.00,180.00,0.00,OPEN,0
557092.249,2,0,0,1.000,1.000,1.000,-90.00,180.00,0.00,OPEN,0
557092.259,2,0,0,1.000,1.000,1.000,-90.00,180.00,0.00,OPEN,0
557092.270,2,0,0,1.000,1.000,1.000,-90.00,180.00,0.00,OPEN,0
557092.280,2,0,0,1.000,1.000,1.000,-90.00,180.00,0.00,OPEN,0
557092.291,2,0,0,1.000,1.000,1.000,-90.00,180.00,0.00,OPEN,0
557092.301,2,0,0,1.000,1.000,1.000,-90.00,180.00,0.00,OPEN,0
557092.311,2,0,0,1.000,1.000,1.000,-90.00,180.00,0.00,OPEN,0
557092.322,2,0,0,1.000,1.000,1.000,-90.00,180.00,0.00,OPEN,0
557092.333,2,0,0,1.000,1.000,1.000,-90.00,180.00,0.00,OPEN,0
557092.343,2,0,0,1.000,1.000,1.000,-90.00,180.00,0.00,OPEN,0
557092.354,2,0,0,1.000,1.000,1.000,-90.00,180.00,0.00,OPEN,0
557092.365,2,0,0,1.000,1.000,1.000,-90.00,180.00,0.00,OPEN,0
557092.375,2,0,0,1.000,1.000,1.000,-90.00,180.00,0.00,OPEN,0
557092.386,2,0,0,1.000,1.000,1.000,-90.00,180.00,0.00,OPEN,0
557092.397,2,0,0,1.000,1.000,1.000,-90.00,180.00,0.00,OPEN,0
557092.408,2,0,0,1.000,1.000,1.000,-90.00,180.00,0.00,OPEN,0
557092.419,2,0,0,1.000,1.000,1.000,-90.00,180.00,0.00,OPEN,0
557092.429,2,0,0,1.000,1.000,1.000,-90.00,180.00,0.00,OPEN,0
557092.440,2,0,0,1.000,1.000,1.000,-90.00,180.00,0.00,OPEN,0
557092.451,2,0,0,1.000,1.000,1.000,-90.00,180.00,0.00,OPEN,0
557092.461,2,0,0,1.000,1.000,1.000,-90.00,180.00,0.00,OPEN,0
557092.472,2,0,0,1.000,1.000,1.000,-90.00,180.00,0.00,OPEN,0
557092.483,2,0,0,1.000,1.000,1.000,-90.00,180.00,0.00,OPEN,0
557092.493,2,0,0,1.000,1.000,1.000,-90.00,180.00,0.00,OPEN,0
557092.503,2,0,0,1.000,1.000,1.000,-90.00,180.00,0.00,OPEN,0
557092.514,2,0,0,1.000,1.000,1.000,-90.00,180.00,0.00,OPEN,0
557092.524,2,0,0,1.000,1.000,1.000,-90.00,180.00,0.00,OPEN,0
557092.535,2,0,0,1.000,1.000,1.000,-90.00,180.00,0.00,OPEN,0
557092.545,2,0,0,1.000,1.000,1.000,-90.00,180.00,0.00,OPEN,0
557092.556,2,0,0,1.000,1.000,1.000,-90.00,180.00,0.00,OPEN,0
557092.567,2,0,0,1.000,1.000,1.000,-90.00,180.00,0.00,OPEN,0
557092.577,2,0,0,1.000,1.000,1.000,-90.00,180.00,0.00,OPEN,0
557092.588,2,0,0,1.000,1.000,1.000,-90.00,180.00,0.00,OPEN,0
557092.598,2,0,0,1.000,1.000,1.000,-90.00,180.00,0.00,OPEN,0
557092.609,2,0,0,1.000,1.000,1.000,-90.00,180.00,0.00,OPEN,0
557092.620,2,0,0,1.000,1.000,1.000,-90.00,180.00,0.00,OPEN,0
557092.631,2,0,0,1.000,1.000,1.000,-90.00,180.00,0.00,OPEN,0
557092.641,2,0,0,1.000,1.000,1.000,-90.00,180.00,0.00,OPEN,0
557092.652,2,0,0,1.000,1.000,1.000,-90.00,180.00,0.00,OPEN,0
557092.662,2,0,0,1.000,1.000,1.000,-90.00,180.00,0.00,OPEN,0
557092.673,2,0,0,1.000,1.000,1.000,-90.00,180.00,0.00,OPEN,0
557092.684,2,0,0,1.000,1.000,1.000,-90.00,180.00,0.00,OPEN,0
557092.694,2,0,0,1.000,1.000,1.000,-90.00,180.00,0.00,OPEN,0
557092.705,2,0,0,1.000,1.000,1.000,-90.00,180.00,0.00,OPEN,0
557092.715,2,0,0,1.000,1.000,1.000,-90.00,180.00,0.00,OPEN,0
557092.726,2,0,0,1.000,1.000,1.000,-90.00,180.00,0.00,OPEN,0
557092.736,2,0,0,1.000,1.000,1.000,-90.00,180.00,0.00,OPEN,0
557092.747,2,0,0,1.000,1.000,1.000,-90.00,180.00,0.00,OPEN,0
557092.757,2,0,0,1.000,1.000,1.000,-90.00,180.00,0.00,OPEN,0
557092.767,2,0,0,1.000,1.000,1.000,-90.00,180.00,0.00,OPEN,0
557092.778,2,0,0,1.000,1.000,1.000,-90.00,180.00,0.00,OPEN,0
557092.789,2,0,0,1.000,1.000,1.000,-90.00,180.00,0.00,OPEN,0
557092.799,2,0,0,1.000,1.000,1.000,-90.00,180.00,0.00,OPEN,0
557092.809,2,0,0,1.000,1.000,1.000,-90.00,180.00,0.00,OPEN,0
557092.820,2,0,0,1.000,1.000,1.000,-90.00,180.00,0.00,OPEN,0
557092.831,2,0,0,1.000,1.000,1.000,-90.00,180.00,0.00,OPEN,0
557092.841,2,0,0,1.000,1.000,1.000,-90.00,180.00,0.00,OPEN,0
557092.851,2,0,0,1.000,1.000,1.000,-90.00,180.00,0.00,OPEN,0
557092.862,2,0,0,1.000,1.000,1.000,-90.00,180.00,0.00,OPEN,0
557092.872,2,0,0,1.000,1.000,1.000,-90.00,180.00,0.00,OPEN,0
557092.883,2,0,0,1.000,1.000,1.000,-90.00,180.00,0.00,OPEN,0
557092.893,2,0,0,1.000,1.000,1.000,-90.00,180.00,0.00,OPEN,0
557092.904,2,0,0,1.000,1.000,1.000,-90.00,180.00,0.00,OPEN,0
557092.915,2,0,0,1.000,1.000,1.000,-90.00,180.00,0.00,OPEN,0
557092.925,2,0,0,1.000,1.000,1.000,-90.00,180.00,0.00,OPEN,0
557092.936,2,0,0,1.000,1.000,1.000,-90.00,180.00,0.00,OPEN,0
557092.947,2,0,0,1.000,1.000,1.000,-90.00,180.00,0.00,OPEN,0
557092.957,2,0,0,1.000,1.000,1.000,-90.00,180.00,0.00,OPEN,0
557092.967,2,0,0,1.000,1.000,1.000,-90.00,180.00,0.00,OPEN,0
557092.978,2,0,0,1.000,1.000,1.000,-90.00,180.00,0.00,OPEN,0
557092.988,2,0,0,1.000,1.000,1.000,-90.00,180.00,0.00,OPEN,0
557092.999,2,0,0,1.000,1.000,1.000,-90.00,180.00,0.00,OPEN,0
557093.009,2,0,0,1.000,1.000,1.000,-90.00,180.00,0.00,OPEN,0
557093.019,2,0,0,1.000,1.000,1.000,-90.00,180.00,0.00,OPEN,0
557093.030,2,0,0,1.000,1.000,1.000,-90.00,180.00,0.00,OPEN,0
557093.041,2,0,0,1.000,1.000,1.000,-90.00,180.00,0.00,OPEN,0
557093.051,2,0,0,1.000,1.000,1.000,-90.00,180.00,0.00,OPEN,0
557093.061,2,0,0,1.000,1.000,1.000,-90.00,180.00,0.00,OPEN,0
557093.072,2,0,0,1.000,1.000,1.000,-90.00,180.00,0.00,OPEN,0
557093.082,2,0,0,1.000,1.000,1.000,-90.00,180.00,0.00,OPEN,0
557093.093,2,0,0,1.000,1.000,1.000,-90.00,180.00,0.00,OPEN,0
557093.103,2,0,0,1.000,1.000,1.000,-90.00,180.00,0.00,OPEN,0
557093.114,2,0,0,1.000,1.000,1.000,-90.00,180.00,0.00,OPEN,0
557093.124,2,0,0,1.000,1.000,1.000,-90.00,180.00,0.00,OPEN,0
557093.135,2,0,0,1.000,1.000,1.000,-90.00,180.00,0.00,OPEN,0
557093.146,2,0,0,1.000,1.000,1.000,-90.00,180.00,0.00,OPEN,0
557093.157,2,0,0,1.000,1.000,1.000,-90.00,180.00,0.00,OPEN,0
557093.167,2,0,0,1.000,1.000,1.000,-90.00,180.00,0.00,OPEN,0
557093.178,2,0,0,1.000,1.000,1.000,-90.00,180.00,0.00,OPEN,0
557093.188,2,0,0,1.000,1.000,1.000,-90.00,180.00,0.00,OPEN,0
557093.199,2,0,0,1.000,1.000,1.000,-90.00,180.00,0.00,OPEN,0
557093.210,2,0,0,1.000,1.000,1.000,-90.00,180.00,0.00,OPEN,0
557093.220,2,0,0,1.000,1.000,1.000,-90.00,180.00,0.00,OPEN,0
557093.231,2,0,0,1.000,1.000,1.000,-90.00,180.00,0.00,OPEN,0
557093.242,2,0,0,1.000,1.000,1.000,-90.00,180.00,0.00,OPEN,0
557093.252,2,0,0,1.000,1.000,1.000,-90.00,180.00,0.00,OPEN,0
557093.263,2,0,0,1.000,1.000,1.000,-90.00,180.00,0.00,OPEN,0
557093.273,2,0,0,1.000,1.000,1.000,-90.00,180.00,0.00,OPEN,0
557093.284,2,0,0,1.000,1.000,1.000,-90.00,180.00,0.00,OPEN,0
557093.294,2,0,0,1.000,1.000,1.000,-90.00,180.00,0.00,OPEN,0
557093.305,2,0,0,1.000,1.000,1.000,-90.00,180.00,0.00,OPEN,0
557093.316,2,0,0,1.000,1.000,1.000,-90.00,180.00,0.00,OPEN,0
557093.326,2,0,0,1.000,1.000,1.000,-90.00,180.00,0.00,OPEN,0
557093.337,2,0,0,1.000,1.000,1.000,-90.00,180.00,0.00,OPEN,0
557093.348,2,0,0,1.000,1.000,1.000,-90.00,180.00,0.00,OPEN,0
557093.358,2,0,0,1.000,1.000,1.000,-90.00,180.00,0.00,OPEN,0
