t,hand,elbow,shoulder,p_hand,p_elbow,p_shoulder,J2,J3,J6,grip_state,cmd_sent
671045.428,0,0,0,0.805,1.000,1.000,-90.00,180.00,0.00,OPEN,0
671045.454,0,0,0,0.711,1.000,1.000,-90.00,180.00,0.00,OPEN,0
671045.462,0,0,0,0.996,1.000,1.000,-90.00,180.00,0.00,OPEN,0
671045.470,0,0,0,1.000,1.000,1.000,-90.00,180.00,0.00,OPEN,0
671045.480,0,0,0,1.000,1.000,1.000,-90.00,180.00,0.00,OPEN,0
671045.486,0,0,0,1.000,1.000,1.000,-90.00,180.00,0.00,OPEN,0
671045.491,0,0,0,1.000,1.000,1.000,-90.00,180.00,0.00,OPEN,0
671045.495,0,0,0,1.000,1.000,1.000,-90.00,180.00,0.00,OPEN,0
671045.499,0,0,0,1.000,1.000,1.000,-90.00,180.00,0.00,OPEN,0
671045.502,0,0,0,1.000,1.000,1.000,-90.00,180.00,0.00,OPEN,0
671045.507,0,0,0,1.000,1.000,1.000,-90.00,180.00,0.00,OPEN,0
671045.511,0,0,0,1.000,1.000,1.000,-90.00,180.00,0.00,OPEN,0
671045.515,0,0,0,1.000,1.000,1.000,-90.00,180.00,0.00,OPEN,0
671045.521,0,0,0,1.000,1.000,1.000,-90.00,180.00,0.00,OPEN,0
671045.526,0,0,0,1.000,1.000,1.000,-90.00,180.00,0.00,OPEN,0
671045.536,0,0,0,1.000,1.000,1.000,-90.00,180.00,0.00,OPEN,0
671045.543,0,0,0,1.000,1.000,1.000,-90.00,180.00,0.00,OPEN,0
671045.549,0,0,0,1.000,1.000,1.000,-90.00,180.00,0.00,OPEN,0
671045.555,0,0,0,1.000,1.000,1.000,-90.00,180.00,0.00,OPEN,0
671045.561,0,0,0,1.000,1.000,1.000,-90.00,180.00,0.00,OPEN,0
671045.566,0,0,0,1.000,1.000,1.000,-90.00,180.00,0.00,OPEN,0
671045.571,0,0,0,1.000,1.000,1.000,-90.00,180.00,0.00,OPEN,0
671045.580,0,0,0,1.000,1.000,1.000,-90.00,180.00,0.00,OPEN,0
671045.584,0,0,0,1.000,1.000,1.000,-90.00,180.00,0.00,OPEN,0
671045.596,0,0,0,1.000,1.000,1.000,-90.00,180.00,0.00,OPEN,0
671045.601,0,0,0,1.000,1.000,1.000,-90.00,180.00,0.00,OPEN,0
671045.605,0,0,0,1.000,1.000,1.000,-90.00,180.00,0.00,OPEN,0
671045.610,0,0,0,1.000,1.000,1.000,-90.00,180.00,0.00,OPEN,0
671045.613,0,0,0,1.000,1.000,1.000,-90.00,180.00,0.00,OPEN,0
671045.617,0,0,0,1.000,1.000,1.000,-90.00,180.00,0.00,OPEN,0
671045.621,0,0,0,1.000,1.000,1.000,-90.00,180.00,0.00,OPEN,0
671045.625,0,0,0,1.000,1.000,1.000,-90.00,180.00,0.00,OPEN,0
671045.629,0,0,0,1.000,1.000,1.000,-90.00,180.00,0.00,OPEN,0
671045.632,0,0,0,1.000,1.000,1.000,-90.00,180.00,0.00,OPEN,0
671045.638,0,0,0,1.000,1.000,1.000,-90.00,180.00,0.00,OPEN,0
671045.642,0,0,0,1.000,1.000,1.000,-90.00,180.00,0.00,OPEN,0
671045.650,0,0,0,1.000,1.000,1.000,-90.00,180.00,0.00,OPEN,0
671045.656,0,0,0,1.000,1.000,1.000,-90.00,180.00,0.00,OPEN,0
671045.659,0,0,0,1.000,1.000,1.000,-90.00,180.00,0.00,OPEN,0
671045.664,0,0,0,1.000,1.000,1.000,-90.00,180.00,0.00,OPEN,0
671045.676,0,0,0,1.000,1.000,1.000,-90.00,180.00,0.00,OPEN,0
671045.686,0,0,0,1.000,1.000,1.000,-90.00,180.00,0.00,OPEN,0
671045.702,0,0,0,1.000,1.000,1.000,-90.00,180.00,0.00,OPEN,0
671045.710,0,0,0,1.000,1.000,1.000,-90.00,180.00,0.00,OPEN,0
671045.716,0,0,0,1.000,1.000,1.000,-90.00,180.00,0.00,OPEN,0
671045.722,0,0,0,1.000,1.000,1.000,-90.00,180.00,0.00,OPEN,0
671045.732,0,0,0,1.000,1.000,1.000,-90.00,180.00,0.00,OPEN,0
671045.741,0,0,0,1.000,1.000,1.000,-90.00,180.00,0.00,OPEN,0
671045.746,0,0,0,1.000,1.000,1.000,-90.00,180.00,0.00,OPEN,0
671045.754,0,0,0,1.000,1.000,1.000,-90.00,180.00,0.00,OPEN,0
671045.762,0,0,0,1.000,1.000,1.000,-90.00,180.00,0.00,OPEN,0
671045.770,0,0,0,1.000,1.000,1.000,-90.00,180.00,0.00,OPEN,0
671045.777,0,0,0,1.000,1.000,1.000,-90.00,180.00,0.00,OPEN,0
671045.781,0,0,0,1.000,1.000,1.000,-90.00,180.00,0.00,OPEN,0
671045.786,0,0,0,1.000,1.000,1.000,-90.00,180.00,0.00,OPEN,0
671045.791,0,0,0,1.000,1.000,1.000,-90.00,180.00,0.00,OPEN,0
671045.798,0,0,0,1.000,1.000,1.000,-90.00,180.00,0.00,OPEN,0
671045.808,0,0,0,1.000,1.000,1.000,-90.00,180.00,0.00,OPEN,0
671045.818,0,0,0,1.000,1.000,1.000,-90.00,180.00,0.00,OPEN,0
671045.827,0,0,0,1.000,1.000,1.000,-90.00,180.00,0.00,OPEN,0
671045.838,0,0,0,1.000,1.000,1.000,-90.00,180.00,0.00,OPEN,0
671045.845,0,0,0,1.000,1.000,1.000,-90.00,180.00,0.00,OPEN,0
671045.854,0,0,0,1.000,1.000,1.000,-90.00,180.00,0.00,OPEN,0
671045.861,0,0,0,1.000,1.000,1.000,-90.00,180.00,0.00,OPEN,0
671045.866,0,0,0,1.000,1.000,1.000,-90.00,180.00,0.00,OPEN,0
671045.870,0,0,0,1.000,1.000,1.000,-90.00,180.00,0.00,OPEN,0
671045.879,0,0,0,1.000,1.000,1.000,-90.00,180.00,0.00,OPEN,0
671045.890,0,0,0,1.000,1.000,1.000,-90.00,180.00,0.00,OPEN,0
671045.911,0,0,0,1.000,1.000,1.000,-90.00,180.00,0.00,OPEN,0
671045.928,0,0,0,1.000,1.000,1.000,-90.00,180.00,0.00,OPEN,0
671045.943,0,0,0,1.000,1.000,1.000,-90.00,180.00,0.00,OPEN,0
671045.953,0,0,0,1.000,1.000,1.000,-90.00,180.00,0.00,OPEN,0
671045.962,0,0,0,1.000,1.000,1.000,-90.00,180.00,0.00,OPEN,0
671045.971,0,0,0,1.000,1.000,1.000,-90.00,180.00,0.00,OPEN,0
671045.980,0,0,0,1.000,1.000,1.000,-90.00,180.00,0.00,OPEN,0
671045.987,0,0,0,1.000,1.000,1.000,-90.00,180.00,0.00,OPEN,0
671045.992,0,0,0,1.000,1.000,1.000,-90.00,180.00,0.00,OPEN,0
671045.996,0,0,0,1.000,1.000,1.000,-90.00,180.00,0.00,OPEN,0
671046.003,0,0,0,1.000,1.000,1.000,-90.00,180.00,0.00,OPEN,0
671046.013,0,0,0,1.000,1.000,1.000,-90.00,180.00,0.00,OPEN,0
671046.017,0,0,0,1.000,1.000,1.000,-90.00,180.00,0.00,OPEN,0
671046.021,0,0,0,1.000,1.000,1.000,-90.00,180.00,0.00,OPEN,0
671046.027,0,0,0,1.000,1.000,1.000,-90.00,180.00,0.00,OPEN,0
671046.031,1,0,0,1.000,1.000,1.000,-90.00,180.00,4.50,OPEN,1
671046.039,1,0,0,1.000,1.000,1.000,-90.00,180.00,4.50,OPEN,0
671046.043,1,0,0,1.000,1.000,1.000,-90.00,180.00,4.50,OPEN,0
671046.047,1,0,0,1.000,1.000,1.000,-90.00,180.00,4.50,OPEN,0
671046.052,1,0,0,1.000,1.000,1.000,-90.00,180.00,4.50,OPEN,0
671046.059,1,0,0,1.000,1.000,1.000,-90.00,180.00,4.50,OPEN,0
671046.065,1,0,0,1.000,1.000,1.000,-90.00,180.00,4.50,OPEN,0
671046.070,1,0,0,1.000,1.000,1.000,-90.00,180.00,4.50,OPEN,0
671046.074,1,0,0,1.000,1.000,1.000,-90.00,180.00,4.50,OPEN,0
671046.079,1,0,0,1.000,1.000,1.000,-90.00,180.00,4.50,OPEN,0
671046.083,1,0,0,1.000,1.000,1.000,-90.00,180.00,4.50,OPEN,0
671046.087,1,0,0,1.000,1.000,1.000,-90.00,180.00,4.50,OPEN,0
671046.091,1,0,0,1.000,1.000,1.000,-90.00,180.00,4.50,OPEN,0
671046.095,1,0,0,1.000,1.000,1.000,-90.00,180.00,4.50,OPEN,0
671046.099,1,0,0,1.000,1.000,1.000,-90.00,180.00,4.50,OPEN,0
671046.103,1,0,0,1.000,1.000,1.000,-90.00,180.00,4.50,OPEN,0
671046.109,1,0,0,1.000,1.000,1.000,-90.00,180.00,4.50,OPEN,0
671046.113,1,0,0,1.000,1.000,1.000,-90.00,180.00,4.50,OPEN,0
671046.117,1,0,0,1.000,1.000,1.000,-90.00,180.00,4.50,OPEN,0
671046.121,1,0,0,1.000,1.000,1.000,-90.00,180.00,4.50,OPEN,0
671046.130,1,0,0,1.000,1.000,1.000,-90.00,180.00,4.50,OPEN,0
671046.134,1,0,0,1.000,0.999,1.000,-90.00,180.00,9.00,OPEN,1
671046.140,1,0,0,1.000,0.997,1.000,-90.00,180.00,9.00,OPEN,0
671046.144,1,0,0,1.000,0.994,1.000,-90.00,180.00,9.00,OPEN,0
671046.147,1,0,0,1.000,0.998,1.000,-90.00,180.00,9.00,OPEN,0
671046.152,1,0,0,1.000,0.999,1.000,-90.00,180.00,9.00,OPEN,0
671046.160,1,0,0,1.000,1.000,1.000,-90.00,180.00,9.00,OPEN,0
671046.164,1,0,0,1.000,1.000,1.000,-90.00,180.00,9.00,OPEN,0
671046.168,1,0,0,1.000,1.000,1.000,-90.00,180.00,9.00,OPEN,0
671046.172,1,0,0,1.000,1.000,1.000,-90.00,180.00,9.00,OPEN,0
671046.177,1,0,0,1.000,1.000,1.000,-90.00,180.00,9.00,OPEN,0
671046.181,1,0,0,1.000,1.000,1.000,-90.00,180.00,9.00,OPEN,0
671046.186,1,0,0,1.000,1.000,1.000,-90.00,180.00,9.00,OPEN,0
671046.192,1,0,0,1.000,1.000,1.000,-90.00,180.00,9.00,OPEN,0
671046.197,1,0,0,1.000,1.000,1.000,-90.00,180.00,9.00,OPEN,0
671046.203,1,0,0,0.540,1.000,1.000,-90.00,180.00,9.00,OPEN,0
671046.208,1,0,0,0.866,1.000,1.000,-90.00,180.00,9.00,OPEN,0
671046.212,1,0,0,0.570,1.000,1.000,-90.00,180.00,9.00,OPEN,0
671046.217,1,0,0,0.697,1.000,1.000,-90.00,180.00,9.00,OPEN,0
671046.222,1,0,0,0.604,1.000,1.000,-90.00,180.00,9.00,OPEN,0
671046.226,1,0,0,0.676,1.000,1.000,-90.00,180.00,9.00,OPEN,0
671046.230,1,0,0,0.688,1.000,1.000,-90.00,180.00,9.00,OPEN,0
671046.234,1,0,0,0.960,1.000,1.000,-90.00,180.00,13.50,OPEN,1
671046.239,1,0,0,1.000,1.000,1.000,-90.00,180.00,13.50,OPEN,0
671046.243,1,0,0,1.000,1.000,1.000,-90.00,180.00,13.50,OPEN,0
671046.247,1,0,0,1.000,1.000,1.000,-90.00,180.00,13.50,OPEN,0
671046.255,0,0,0,1.000,1.000,1.000,-90.00,180.00,13.50,OPEN,0
671046.260,0,0,0,1.000,1.000,1.000,-90.00,180.00,13.50,OPEN,0
671046.264,0,0,0,1.000,1.000,1.000,-90.00,180.00,13.50,OPEN,0
671046.268,0,0,0,1.000,1.000,1.000,-90.00,180.00,13.50,OPEN,0
671046.273,0,0,0,1.000,1.000,1.000,-90.00,180.00,13.50,OPEN,0
671046.278,0,0,0,1.000,1.000,1.000,-90.00,180.00,13.50,OPEN,0
671046.282,0,0,0,1.000,1.000,1.000,-90.00,180.00,13.50,OPEN,0
671046.289,0,0,0,1.000,1.000,1.000,-90.00,180.00,13.50,OPEN,0
671046.293,0,0,0,1.000,1.000,1.000,-90.00,180.00,13.50,OPEN,0
671046.298,0,0,0,1.000,1.000,1.000,-90.00,180.00,13.50,OPEN,0
671046.303,0,0,0,1.000,1.000,1.000,-90.00,180.00,13.50,OPEN,0
671046.308,0,0,0,1.000,1.000,1.000,-90.00,180.00,13.50,OPEN,0
671046.312,0,0,0,1.000,1.000,1.000,-90.00,180.00,13.50,OPEN,0
671046.317,0,0,0,1.000,1.000,1.000,-90.00,180.00,13.50,OPEN,0
671046.321,0,0,0,1.000,1.000,1.000,-90.00,180.00,13.50,OPEN,0
671046.326,0,0,0,1.000,1.000,1.000,-90.00,180.00,13.50,OPEN,0
671046.330,0,0,0,1.000,1.000,1.000,-90.00,180.00,13.50,OPEN,0
671046.334,0,0,0,1.000,1.000,1.000,-90.00,180.00,13.50,OPEN,0
671046.339,0,0,0,1.000,1.000,1.000,-90.00,180.00,13.50,OPEN,0
671046.344,0,0,0,1.000,1.000,1.000,-90.00,180.00,13.50,OPEN,0
671046.348,0,0,0,1.000,1.000,1.000,-90.00,180.00,13.50,OPEN,0
671046.353,0,0,0,1.000,1.000,1.000,-90.00,180.00,13.50,OPEN,0
671046.357,0,0,0,1.000,1.000,1.000,-90.00,180.00,13.50,OPEN,0
671046.365,0,0,0,1.000,1.000,1.000,-90.00,180.00,13.50,OPEN,0
671046.369,0,0,0,0.999,1.000,1.000,-90.00,180.00,13.50,OPEN,0
671046.373,0,0,0,1.000,1.000,1.000,-90.00,180.00,13.50,OPEN,0
671046.378,0,0,0,1.000,1.000,1.000,-90.00,180.00,13.50,OPEN,0
671046.382,0,0,0,1.000,1.000,1.000,-90.00,180.00,13.50,OPEN,0
671046.386,0,0,0,1.000,1.000,1.000,-90.00,180.00,13.50,OPEN,0
671046.394,0,0,0,1.000,1.000,1.000,-90.00,180.00,13.50,OPEN,0
671046.398,0,0,0,1.000,1.000,1.000,-90.00,180.00,13.50,OPEN,0
671046.403,0,0,0,1.000,1.000,1.000,-90.00,180.00,13.50,OPEN,0
671046.407,0,0,0,1.000,1.000,1.000,-90.00,180.00,13.50,OPEN,0
671046.412,0,0,0,1.000,1.000,1.000,-90.00,180.00,13.50,OPEN,0
671046.417,0,0,0,1.000,1.000,1.000,-90.00,180.00,13.50,OPEN,0
671046.427,0,0,0,1.000,1.000,1.000,-90.00,180.00,13.50,OPEN,0
671046.433,0,0,0,1.000,1.000,1.000,-90.00,180.00,13.50,OPEN,0
671046.440,0,0,0,1.000,1.000,1.000,-90.00,180.00,13.50,OPEN,0
671046.446,0,0,0,1.000,1.000,1.000,-90.00,180.00,13.50,OPEN,0
671046.451,0,0,0,1.000,1.000,1.000,-90.00,180.00,13.50,OPEN,0
671046.456,0,0,0,1.000,1.000,1.000,-90.00,180.00,13.50,OPEN,0
671046.461,0,0,0,1.000,1.000,1.000,-90.00,180.00,13.50,OPEN,0
671046.465,0,0,0,1.000,1.000,1.000,-90.00,180.00,13.50,OPEN,0
671046.470,0,0,0,0.999,1.000,1.000,-90.00,180.00,13.50,OPEN,0
671046.475,0,0,0,1.000,1.000,1.000,-90.00,180.00,13.50,OPEN,0
671046.480,0,0,0,1.000,1.000,1.000,-90.00,180.00,13.50,OPEN,0
671046.484,0,0,0,1.000,1.000,1.000,-90.00,180.00,13.50,OPEN,0
671046.492,0,0,0,1.000,1.000,1.000,-90.00,180.00,13.50,OPEN,0
671046.497,0,0,0,1.000,1.000,1.000,-90.00,180.00,13.50,OPEN,0
671046.501,0,0,0,1.000,1.000,1.000,-90.00,180.00,13.50,OPEN,0
671046.511,0,0,0,1.000,1.000,1.000,-90.00,180.00,13.50,OPEN,0
671046.515,0,0,0,1.000,1.000,1.000,-90.00,180.00,13.50,OPEN,0
671046.519,0,0,0,1.000,1.000,1.000,-90.00,180.00,13.50,OPEN,0
671046.524,0,0,0,1.000,1.000,1.000,-90.00,180.00,13.50,OPEN,0
671046.531,0,0,0,1.000,1.000,1.000,-90.00,180.00,13.50,OPEN,0
671046.541,0,0,0,1.000,1.000,1.000,-90.00,180.00,13.50,OPEN,0
671046.550,0,0,0,1.000,1.000,1.000,-90.00,180.00,13.50,OPEN,0
671046.556,0,0,0,1.000,1.000,1.000,-90.00,180.00,13.50,OPEN,0
671046.562,0,0,0,0.999,1.000,1.000,-90.00,180.00,13.50,OPEN,0
671046.567,0,0,0,1.000,1.000,1.000,-90.00,180.00,13.50,OPEN,0
671046.577,0,0,0,1.000,1.000,1.000,-90.00,180.00,13.50,OPEN,0
671046.581,0,0,0,1.000,1.000,1.000,-90.00,180.00,13.50,OPEN,0
671046.587,0,0,0,1.000,1.000,1.000,-90.00,180.00,13.50,OPEN,0
671046.595,0,0,0,1.000,1.000,1.000,-90.00,180.00,13.50,OPEN,0
671046.603,0,0,0,1.000,1.000,1.000,-90.00,180.00,13.50,OPEN,0
671046.610,0,0,0,1.000,1.000,1.000,-90.00,180.00,13.50,OPEN,0
671046.618,0,0,0,1.000,1.000,1.000,-90.00,180.00,13.50,OPEN,0
671046.625,0,0,0,1.000,1.000,1.000,-90.00,180.00,13.50,OPEN,0
671046.629,0,0,0,1.000,1.000,1.000,-90.00,180.00,13.50,OPEN,0
671046.634,0,0,0,1.000,1.000,1.000,-90.00,180.00,13.50,OPEN,0
671046.638,0,0,0,1.000,1.000,1.000,-90.00,180.00,13.50,OPEN,0
671046.642,0,0,0,1.000,1.000,1.000,-90.00,180.00,13.50,OPEN,0
671046.646,0,0,0,1.000,1.000,1.000,-90.00,180.00,13.50,OPEN,0
671046.650,0,0,0,1.000,1.000,1.000,-90.00,180.00,13.50,OPEN,0
671046.654,0,0,0,1.000,1.000,1.000,-90.00,180.00,13.50,OPEN,0
671046.658,0,0,0,1.000,1.000,1.000,-90.00,180.00,13.50,OPEN,0
671046.662,0,0,0,1.000,1.000,1.000,-90.00,180.00,13.50,OPEN,0
671046.670,0,0,0,1.000,1.000,1.000,-90.00,180.00,13.50,OPEN,0
671046.679,0,0,0,1.000,1.000,1.000,-90.00,180.00,13.50,OPEN,0
671046.683,0,0,0,1.000,1.000,1.000,-90.00,180.00,13.50,OPEN,0
671046.687,0,0,0,1.000,1.000,1.000,-90.00,180.00,13.50,OPEN,0
671046.695,0,0,0,1.000,1.000,1.000,-90.00,180.00,13.50,OPEN,0
671046.699,0,0,0,1.000,1.000,1.000,-90.00,180.00,13.50,OPEN,0
671046.704,0,0,0,1.000,1.000,1.000,-90.00,180.00,13.50,OPEN,0
671046.708,0,0,0,1.000,1.000,1.000,-90.00,180.00,13.50,OPEN,0
671046.716,0,0,0,1.000,1.000,1.000,-90.00,180.00,13.50,OPEN,0
671046.721,0,0,0,1.000,1.000,1.000,-90.00,180.00,13.50,OPEN,0
671046.725,0,0,0,1.000,1.000,1.000,-90.00,180.00,13.50,OPEN,0
671046.730,0,0,0,1.000,1.000,1.000,-90.00,180.00,13.50,OPEN,0
671046.734,0,0,0,1.000,1.000,1.000,-90.00,180.00,13.50,OPEN,0
671046.738,0,0,0,1.000,1.000,1.000,-90.00,180.00,13.50,OPEN,0
671046.742,0,0,0,1.000,1.000,1.000,-90.00,180.00,13.50,OPEN,0
671046.747,0,0,0,1.000,1.000,1.000,-90.00,180.00,13.50,OPEN,0
671046.751,0,0,0,1.000,1.000,1.000,-90.00,180.00,13.50,OPEN,0
671046.760,0,0,0,1.000,1.000,1.000,-90.00,180.00,13.50,OPEN,0
671046.764,0,0,0,1.000,1.000,1.000,-90.00,180.00,13.50,OPEN,0
671046.768,0,0,0,1.000,1.000,1.000,-90.00,180.00,13.50,OPEN,0
671046.773,0,0,0,1.000,1.000,1.000,-90.00,180.00,13.50,OPEN,0
671046.778,0,0,0,1.000,1.000,1.000,-90.00,180.00,13.50,OPEN,0
671046.782,0,0,0,1.000,1.000,1.000,-90.00,180.00,13.50,OPEN,0
671046.787,0,0,0,1.000,1.000,1.000,-90.00,180.00,13.50,OPEN,0
671046.791,0,0,0,1.000,1.000,1.000,-90.00,180.00,13.50,OPEN,0
671046.795,0,0,0,1.000,1.000,1.000,-90.00,180.00,13.50,OPEN,0
671046.804,0,0,0,1.000,1.000,1.000,-90.00,180.00,13.50,OPEN,0
671046.808,0,0,0,1.000,1.000,1.000,-90.00,180.00,13.50,OPEN,0
671046.813,0,0,0,1.000,1.000,1.000,-90.00,180.00,13.50,OPEN,0
671046.817,0,0,0,1.000,1.000,1.000,-90.00,180.00,13.50,OPEN,0
671046.821,0,0,0,1.000,1.000,1.000,-90.00,180.00,13.50,OPEN,0
671046.826,0,0,0,1.000,1.000,1.000,-90.00,180.00,13.50,OPEN,0
671046.832,0,0,0,1.000,1.000,1.000,-90.00,180.00,13.50,OPEN,0
671046.837,0,0,0,1.000,1.000,1.000,-90.00,180.00,13.50,OPEN,0
671046.842,0,0,0,1.000,1.000,1.000,-90.00,180.00,13.50,OPEN,0
671046.849,0,0,0,1.000,1.000,1.000,-90.00,180.00,13.50,OPEN,0
671046.855,0,0,0,1.000,1.000,1.000,-90.00,180.00,13.50,OPEN,0
671046.859,0,0,0,1.000,1.000,1.000,-90.00,180.00,13.50,OPEN,0
671046.864,0,0,0,1.000,1.000,1.000,-90.00,180.00,13.50,OPEN,0
671046.869,0,0,0,1.000,1.000,1.000,-90.00,180.00,13.50,OPEN,0
671046.877,0,0,0,1.000,1.000,1.000,-90.00,180.00,13.50,OPEN,0
671046.886,0,0,0,1.000,1.000,1.000,-90.00,180.00,13.50,OPEN,0
671046.895,0,0,0,1.000,1.000,1.000,-90.00,180.00,13.50,OPEN,0
671046.904,0,0,0,1.000,1.000,1.000,-90.00,180.00,13.50,OPEN,0
671046.911,0,0,0,1.000,1.000,1.000,-90.00,180.00,13.50,OPEN,0
671046.919,0,0,0,1.000,1.000,1.000,-90.00,180.00,13.50,OPEN,0
671046.927,0,0,0,1.000,1.000,1.000,-90.00,180.00,13.50,OPEN,0
671046.935,0,0,0,1.000,1.000,1.000,-90.00,180.00,13.50,OPEN,0
671046.944,0,0,0,1.000,1.000,1.000,-90.00,180.00,13.50,OPEN,0
671046.952,0,0,0,1.000,1.000,1.000,-90.00,180.00,13.50,OPEN,0
671046.957,0,0,0,1.000,1.000,1.000,-90.00,180.00,13.50,OPEN,0
671046.960,0,0,0,1.000,1.000,1.000,-90.00,180.00,13.50,OPEN,0
671046.965,0,0,0,1.000,1.000,1.000,-90.00,180.00,13.50,OPEN,0
671046.970,0,0,0,1.000,1.000,1.000,-90.00,180.00,13.50,OPEN,0
671046.974,0,0,0,1.000,1.000,1.000,-90.00,180.00,13.50,OPEN,0
671046.978,0,0,0,1.000,1.000,1.000,-90.00,180.00,13.50,OPEN,0
671046.983,0,0,0,0.999,1.000,1.000,-90.00,180.00,13.50,OPEN,0
671046.987,0,0,0,0.866,1.000,1.000,-90.00,180.00,13.50,OPEN,0
671046.991,0,0,0,0.663,1.000,1.000,-90.00,180.00,13.50,OPEN,0
671046.996,0,0,0,0.938,1.000,1.000,-90.00,180.00,13.50,OPEN,0
671047.003,0,0,0,0.994,1.000,1.000,-90.00,180.00,13.50,OPEN,0
671047.009,0,0,0,0.999,1.000,1.000,-90.00,180.00,13.50,OPEN,0
671047.014,0,0,0,1.000,1.000,1.000,-90.00,180.00,13.50,OPEN,0
671047.020,0,0,0,1.000,1.000,1.000,-90.00,180.00,13.50,OPEN,0
671047.025,0,0,0,1.000,1.000,1.000,-90.00,180.00,13.50,OPEN,0
671047.032,0,0,0,1.000,1.000,1.000,-90.00,180.00,13.50,OPEN,0
671047.036,2,0,0,1.000,1.000,1.000,-90.00,180.00,9.00,OPEN,1
671047.040,2,0,0,1.000,1.000,1.000,-90.00,180.00,9.00,OPEN,0
671047.044,2,0,0,1.000,1.000,1.000,-90.00,180.00,9.00,OPEN,0
671047.048,2,0,0,1.000,1.000,1.000,-90.00,180.00,9.00,OPEN,0
671047.052,2,0,0,1.000,1.000,1.000,-90.00,180.00,9.00,OPEN,0
671047.055,2,0,0,1.000,1.000,1.000,-90.00,180.00,9.00,OPEN,0
671047.059,2,0,0,1.000,1.000,1.000,-90.00,180.00,9.00,OPEN,0
671047.063,2,0,0,1.000,1.000,1.000,-90.00,180.00,9.00,OPEN,0
671047.067,2,0,0,1.000,1.000,1.000,-90.00,180.00,9.00,OPEN,0
671047.071,2,0,0,1.000,1.000,1.000,-90.00,180.00,9.00,OPEN,0
671047.074,2,0,0,1.000,1.000,1.000,-90.00,180.00,9.00,OPEN,0
671047.078,2,0,0,1.000,1.000,1.000,-90.00,180.00,9.00,OPEN,0
671047.082,2,0,0,1.000,1.000,1.000,-90.00,180.00,9.00,OPEN,0
671047.088,2,0,0,1.000,1.000,1.000,-90.00,180.00,9.00,OPEN,0
671047.091,2,0,0,1.000,1.000,1.000,-90.00,180.00,9.00,OPEN,0
671047.095,2,0,0,1.000,1.000,1.000,-90.00,180.00,9.00,OPEN,0
671047.100,2,0,0,1.000,1.000,1.000,-90.00,180.00,9.00,OPEN,0
671047.104,2,0,0,1.000,1.000,1.000,-90.00,180.00,9.00,OPEN,0
671047.109,2,0,0,1.000,1.000,1.000,-90.00,180.00,9.00,OPEN,0
671047.114,2,0,0,1.000,1.000,1.000,-90.00,180.00,9.00,OPEN,0
671047.121,2,0,0,1.000,1.000,1.000,-90.00,180.00,9.00,OPEN,0
671047.128,2,0,0,1.000,1.000,1.000,-90.00,180.00,9.00,OPEN,0
671047.137,2,0,0,1.000,1.000,1.000,-90.00,180.00,4.50,OPEN,1
671047.142,2,0,0,1.000,1.000,1.000,-90.00,180.00,4.50,OPEN,0
671047.147,2,0,0,1.000,1.000,1.000,-90.00,180.00,4.50,OPEN,0
671047.152,2,0,0,1.000,1.000,1.000,-90.00,180.00,4.50,OPEN,0
671047.158,2,0,0,1.000,1.000,1.000,-90.00,180.00,4.50,OPEN,0
671047.163,2,0,0,1.000,1.000,1.000,-90.00,180.00,4.50,OPEN,0
671047.167,2,0,0,1.000,1.000,1.000,-90.00,180.00,4.50,OPEN,0
671047.171,2,0,0,1.000,1.000,1.000,-90.00,180.00,4.50,OPEN,0
671047.175,2,0,0,1.000,1.000,1.000,-90.00,180.00,4.50,OPEN,0
671047.179,2,0,0,1.000,1.000,1.000,-90.00,180.00,4.50,OPEN,0
671047.184,2,0,0,1.000,1.000,1.000,-90.00,180.00,4.50,OPEN,0
671047.190,2,0,0,1.000,1.000,1.000,-90.00,180.00,4.50,OPEN,0
671047.194,2,0,0,1.000,1.000,1.000,-90.00,180.00,4.50,OPEN,0
671047.198,2,0,0,1.000,1.000,1.000,-90.00,180.00,4.50,OPEN,0
671047.203,2,0,0,1.000,1.000,1.000,-90.00,180.00,4.50,OPEN,0
671047.207,2,0,0,1.000,1.000,1.000,-90.00,180.00,4.50,OPEN,0
671047.213,2,0,0,1.000,1.000,1.000,-90.00,180.00,4.50,OPEN,0
671047.217,2,0,0,1.000,1.000,1.000,-90.00,180.00,4.50,OPEN,0
671047.223,2,0,0,1.000,1.000,1.000,-90.00,180.00,4.50,OPEN,0
671047.227,2,0,0,1.000,1.000,1.000,-90.00,180.00,4.50,OPEN,0
671047.230,2,0,0,1.000,1.000,1.000,-90.00,180.00,4.50,OPEN,0
671047.234,2,0,0,1.000,1.000,1.000,-90.00,180.00,4.50,OPEN,0
671047.238,2,0,0,1.000,1.000,1.000,-90.00,180.00,0.00,OPEN,1
671047.242,2,0,0,1.000,1.000,1.000,-90.00,180.00,0.00,OPEN,0
671047.246,2,0,0,1.000,1.000,1.000,-90.00,180.00,0.00,OPEN,0
671047.250,2,0,0,1.000,1.000,1.000,-90.00,180.00,0.00,OPEN,0
671047.254,2,0,0,1.000,1.000,1.000,-90.00,180.00,0.00,OPEN,0
671047.258,2,0,0,1.000,1.000,1.000,-90.00,180.00,0.00,OPEN,0
671047.262,2,0,0,1.000,1.000,1.000,-90.00,180.00,0.00,OPEN,0
671047.267,2,0,0,1.000,1.000,1.000,-90.00,180.00,0.00,OPEN,0
671047.272,2,0,0,1.000,1.000,1.000,-90.00,180.00,0.00,OPEN,0
671047.276,2,0,0,1.000,1.000,1.000,-90.00,180.00,0.00,OPEN,0
671047.280,2,0,0,1.000,1.000,1.000,-90.00,180.00,0.00,OPEN,0
671047.284,2,0,0,1.000,1.000,1.000,-90.00,180.00,0.00,OPEN,0
671047.288,2,0,0,1.000,1.000,1.000,-90.00,180.00,0.00,OPEN,0
671047.296,2,0,0,1.000,1.000,1.000,-90.00,180.00,0.00,OPEN,0
671047.307,2,0,0,1.000,1.000,1.000,-90.00,180.00,0.00,OPEN,0
671047.318,2,0,0,1.000,1.000,1.000,-90.00,180.00,0.00,OPEN,0
671047.335,2,0,0,1.000,1.000,1.000,-90.00,180.00,0.00,OPEN,0
671047.341,2,0,0,1.000,1.000,1.000,-90.00,180.00,-4.50,OPEN,1
671047.346,2,0,0,1.000,1.000,1.000,-90.00,180.00,-4.50,OPEN,0
671047.350,2,0,0,1.000,1.000,1.000,-90.00,180.00,-4.50,OPEN,0
671047.355,2,0,0,1.000,1.000,1.000,-90.00,180.00,-4.50,OPEN,0
671047.360,2,0,0,1.000,1.000,1.000,-90.00,180.00,-4.50,OPEN,0
671047.366,2,0,0,1.000,1.000,1.000,-90.00,180.00,-4.50,OPEN,0
671047.369,2,0,0,1.000,1.000,1.000,-90.00,180.00,-4.50,OPEN,0
671047.373,2,0,0,1.000,1.000,1.000,-90.00,180.00,-4.50,OPEN,0
671047.377,2,0,0,1.000,1.000,1.000,-90.00,180.00,-4.50,OPEN,0
671047.386,2,0,0,1.000,1.000,1.000,-90.00,180.00,-4.50,OPEN,0
671047.391,2,0,0,1.000,1.000,1.000,-90.00,180.00,-4.50,OPEN,0
671047.395,2,0,0,1.000,1.000,1.000,-90.00,180.00,-4.50,OPEN,0
671047.399,2,0,0,1.000,1.000,1.000,-90.00,180.00,-4.50,OPEN,0
671047.403,2,0,0,1.000,1.000,1.000,-90.00,180.00,-4.50,OPEN,0
671047.409,2,0,0,1.000,1.000,1.000,-90.00,180.00,-4.50,OPEN,0
671047.413,2,0,0,1.000,1.000,1.000,-90.00,180.00,-4.50,OPEN,0
671047.417,2,0,0,1.000,1.000,1.000,-90.00,180.00,-4.50,OPEN,0
671047.421,2,0,0,1.000,1.000,1.000,-90.00,180.00,-4.50,OPEN,0
671047.425,2,0,0,1.000,1.000,1.000,-90.00,180.00,-4.50,OPEN,0
671047.429,2,0,0,1.000,1.000,1.000,-90.00,180.00,-4.50,OPEN,0
671047.433,2,0,0,1.000,1.000,1.000,-90.00,180.00,-4.50,OPEN,0
671047.437,2,0,0,1.000,1.000,1.000,-90.00,180.00,-4.50,OPEN,0
671047.441,2,0,0,1.000,1.000,1.000,-90.00,180.00,-9.00,OPEN,1
671047.445,2,0,0,1.000,1.000,1.000,-90.00,180.00,-9.00,OPEN,0
671047.449,2,0,0,1.000,1.000,1.000,-90.00,180.00,-9.00,OPEN,0
671047.453,2,0,0,1.000,1.000,1.000,-90.00,180.00,-9.00,OPEN,0
671047.458,2,0,0,1.000,1.000,1.000,-90.00,180.00,-9.00,OPEN,0
671047.462,2,0,0,1.000,1.000,1.000,-90.00,180.00,-9.00,OPEN,0
671047.465,2,0,0,1.000,1.000,1.000,-90.00,180.00,-9.00,OPEN,0
671047.469,2,0,0,1.000,1.000,1.000,-90.00,180.00,-9.00,OPEN,0
671047.474,2,0,0,1.000,1.000,1.000,-90.00,180.00,-9.00,OPEN,0
671047.478,2,0,0,1.000,1.000,1.000,-90.00,180.00,-9.00,OPEN,0
671047.482,2,0,0,1.000,1.000,1.000,-90.00,180.00,-9.00,OPEN,0
671047.487,2,0,0,1.000,1.000,1.000,-90.00,180.00,-9.00,OPEN,0
671047.496,2,0,0,1.000,1.000,1.000,-90.00,180.00,-9.00,OPEN,0
671047.501,2,0,0,1.000,1.000,1.000,-90.00,180.00,-9.00,OPEN,0
671047.505,2,0,0,1.000,1.000,1.000,-90.00,180.00,-9.00,OPEN,0
671047.510,2,0,0,1.000,1.000,1.000,-90.00,180.00,-9.00,OPEN,0
671047.513,2,0,0,1.000,1.000,1.000,-90.00,180.00,-9.00,OPEN,0
671047.518,2,0,0,1.000,1.000,1.000,-90.00,180.00,-9.00,OPEN,0
671047.527,2,0,0,1.000,1.000,1.000,-90.00,180.00,-9.00,OPEN,0
671047.532,2,0,0,1.000,1.000,1.000,-90.00,180.00,-9.00,OPEN,0
671047.535,2,0,0,1.000,1.000,1.000,-90.00,180.00,-9.00,OPEN,0
671047.540,2,0,0,1.000,1.000,1.000,-90.00,180.00,-9.00,OPEN,0
671047.544,2,0,0,1.000,1.000,1.000,-90.00,180.00,-13.50,OPEN,1
671047.548,2,0,0,1.000,1.000,1.000,-90.00,180.00,-13.50,OPEN,0
671047.552,2,0,0,1.000,1.000,1.000,-90.00,180.00,-13.50,OPEN,0
671047.557,2,0,0,1.000,1.000,1.000,-90.00,180.00,-13.50,OPEN,0
671047.566,2,0,0,1.000,1.000,1.000,-90.00,180.00,-13.50,OPEN,0
671047.574,2,0,0,1.000,1.000,1.000,-90.00,180.00,-13.50,OPEN,0
671047.581,2,0,0,1.000,1.000,1.000,-90.00,180.00,-13.50,OPEN,0
671047.593,2,0,0,1.000,1.000,1.000,-90.00,180.00,-13.50,OPEN,0
671047.597,2,0,0,1.000,1.000,1.000,-90.00,180.00,-13.50,OPEN,0
671047.602,2,0,0,1.000,1.000,1.000,-90.00,180.00,-13.50,OPEN,0
671047.606,2,0,0,1.000,1.000,1.000,-90.00,180.00,-13.50,OPEN,0
671047.610,2,0,0,0.999,1.000,1.000,-90.00,180.00,-13.50,OPEN,0
671047.615,2,0,0,0.968,1.000,1.000,-90.00,180.00,-13.50,OPEN,0
671047.619,2,0,0,0.730,1.000,1.000,-90.00,180.00,-13.50,OPEN,0
671047.624,2,0,0,0.954,1.000,1.000,-90.00,180.00,-13.50,OPEN,0
671047.632,2,0,0,0.989,1.000,1.000,-90.00,180.00,-13.50,OPEN,0
671047.638,2,0,0,0.992,1.000,1.000,-90.00,180.00,-13.50,OPEN,0
671047.646,2,0,0,0.988,1.000,1.000,-90.00,180.00,-18.00,OPEN,1
671047.654,2,0,0,0.986,1.000,1.000,-90.00,180.00,-18.00,OPEN,0
671047.659,2,0,0,0.980,1.000,1.000,-90.00,180.00,-18.00,OPEN,0
671047.663,2,0,0,0.875,1.000,1.000,-90.00,180.00,-18.00,OPEN,0
671047.666,3,0,0,0.922,1.000,1.000,-90.00,180.00,-18.00,CLOSED,0
671047.670,3,0,0,1.000,1.000,1.000,-90.00,180.00,-18.00,CLOSED,0
671047.675,3,0,0,1.000,1.000,1.000,-90.00,180.00,-18.00,CLOSED,0
671047.682,3,0,0,1.000,1.000,1.000,-90.00,180.00,-18.00,CLOSED,0
671047.688,3,0,0,1.000,1.000,1.000,-90.00,180.00,-18.00,CLOSED,0
671047.693,3,0,0,1.000,1.000,1.000,-90.00,180.00,-18.00,CLOSED,0
671047.707,3,0,0,1.000,1.000,1.000,-90.00,180.00,-18.00,CLOSED,0
671047.719,0,0,0,1.000,1.000,1.000,-90.00,180.00,-18.00,CLOSED,0
671047.727,0,0,0,1.000,1.000,1.000,-90.00,180.00,-18.00,CLOSED,0
671047.735,0,0,0,1.000,1.000,1.000,-90.00,180.00,-18.00,CLOSED,0
671047.746,0,0,0,1.000,1.000,1.000,-90.00,180.00,-18.00,CLOSED,0
671047.752,0,0,0,1.000,1.000,1.000,-90.00,180.00,-18.00,CLOSED,0
671047.757,0,0,0,1.000,1.000,1.000,-90.00,180.00,-18.00,CLOSED,0
671047.761,0,0,0,1.000,1.000,1.000,-90.00,180.00,-18.00,CLOSED,0
671047.764,0,0,0,1.000,1.000,1.000,-90.00,180.00,-18.00,CLOSED,0
671047.768,0,0,0,1.000,1.000,1.000,-90.00,180.00,-18.00,CLOSED,0
671047.773,0,0,0,1.000,1.000,1.000,-90.00,180.00,-18.00,CLOSED,0
671047.777,0,0,0,1.000,1.000,1.000,-90.00,180.00,-18.00,CLOSED,0
671047.780,0,0,0,1.000,1.000,1.000,-90.00,180.00,-18.00,CLOSED,0
671047.789,0,0,0,1.000,1.000,1.000,-90.00,180.00,-18.00,CLOSED,0
671047.797,0,0,0,1.000,1.000,1.000,-90.00,180.00,-18.00,CLOSED,0
671047.805,0,0,0,1.000,1.000,1.000,-90.00,180.00,-18.00,CLOSED,0
671047.813,0,0,0,1.000,1.000,1.000,-90.00,180.00,-18.00,CLOSED,0
671047.820,0,0,0,1.000,1.000,1.000,-90.00,180.00,-18.00,CLOSED,0
671047.823,0,0,0,1.000,1.000,1.000,-90.00,180.00,-18.00,CLOSED,0
671047.827,0,0,0,1.000,1.000,1.000,-90.00,180.00,-18.00,CLOSED,0
671047.831,0,0,0,1.000,1.000,1.000,-90.00,180.00,-18.00,CLOSED,0
671047.834,0,0,0,1.000,1.000,1.000,-90.00,180.00,-18.00,CLOSED,0
671047.841,0,0,0,1.000,1.000,1.000,-90.00,180.00,-18.00,CLOSED,0
671047.846,0,0,0,1.000,1.000,1.000,-90.00,180.00,-18.00,CLOSED,0
671047.850,0,0,0,1.000,1.000,1.000,-90.00,180.00,-18.00,CLOSED,0
671047.857,0,0,0,1.000,1.000,1.000,-90.00,180.00,-18.00,CLOSED,0
671047.867,0,0,0,1.000,1.000,1.000,-90.00,180.00,-18.00,CLOSED,0
671047.873,0,0,0,1.000,1.000,1.000,-90.00,180.00,-18.00,CLOSED,0
671047.878,0,0,0,1.000,1.000,1.000,-90.00,180.00,-18.00,CLOSED,0
671047.886,0,0,0,1.000,1.000,1.000,-90.00,180.00,-18.00,CLOSED,0
671047.891,0,0,0,1.000,1.000,1.000,-90.00,180.00,-18.00,CLOSED,0
671047.899,0,0,0,1.000,1.000,1.000,-90.00,180.00,-18.00,CLOSED,0
671047.908,0,0,0,1.000,1.000,1.000,-90.00,180.00,-18.00,CLOSED,0
671047.912,0,0,0,1.000,1.000,1.000,-90.00,180.00,-18.00,CLOSED,0
671047.917,0,0,0,1.000,1.000,1.000,-90.00,180.00,-18.00,CLOSED,0
671047.921,0,0,0,1.000,1.000,1.000,-90.00,180.00,-18.00,CLOSED,0
671047.926,0,0,0,1.000,1.000,1.000,-90.00,180.00,-18.00,CLOSED,0
671047.930,0,0,0,1.000,1.000,1.000,-90.00,180.00,-18.00,CLOSED,0
671047.935,0,0,0,1.000,1.000,1.000,-90.00,180.00,-18.00,CLOSED,0
671047.940,0,0,0,1.000,1.000,1.000,-90.00,180.00,-18.00,CLOSED,0
671047.949,0,0,0,1.000,1.000,1.000,-90.00,180.00,-18.00,CLOSED,0
671047.954,0,0,0,1.000,1.000,1.000,-90.00,180.00,-18.00,CLOSED,0
671047.959,0,0,0,1.000,1.000,1.000,-90.00,180.00,-18.00,CLOSED,0
671047.963,0,0,0,1.000,1.000,1.000,-90.00,180.00,-18.00,CLOSED,0
671047.967,0,0,0,1.000,1.000,1.000,-90.00,180.00,-18.00,CLOSED,0
671047.971,0,0,0,1.000,1.000,1.000,-90.00,180.00,-18.00,CLOSED,0
671047.976,0,0,0,1.000,1.000,1.000,-90.00,180.00,-18.00,CLOSED,0
671047.984,0,0,0,1.000,1.000,1.000,-90.00,180.00,-18.00,CLOSED,0
671047.992,0,0,0,1.000,1.000,1.000,-90.00,180.00,-18.00,CLOSED,0
671047.999,0,0,0,1.000,1.000,1.000,-90.00,180.00,-18.00,CLOSED,0
671048.003,0,0,0,1.000,1.000,1.000,-90.00,180.00,-18.00,CLOSED,0
671048.007,0,0,0,1.000,1.000,1.000,-90.00,180.00,-18.00,CLOSED,0
671048.011,0,0,0,1.000,1.000,1.000,-90.00,180.00,-18.00,CLOSED,0
671048.015,0,0,0,1.000,1.000,1.000,-90.00,180.00,-18.00,CLOSED,0
671048.023,0,0,0,1.000,1.000,1.000,-90.00,180.00,-18.00,CLOSED,0
671048.031,0,0,0,1.000,1.000,1.000,-90.00,180.00,-18.00,CLOSED,0
671048.035,0,0,0,1.000,1.000,1.000,-90.00,180.00,-18.00,CLOSED,0
671048.039,0,0,0,1.000,1.000,1.000,-90.00,180.00,-18.00,CLOSED,0
671048.043,0,0,0,1.000,1.000,1.000,-90.00,180.00,-18.00,CLOSED,0
671048.051,0,0,0,1.000,1.000,1.000,-90.00,180.00,-18.00,CLOSED,0
671048.063,0,0,0,1.000,1.000,1.000,-90.00,180.00,-18.00,CLOSED,0
671048.074,0,0,0,1.000,1.000,1.000,-90.00,180.00,-18.00,CLOSED,0
671048.084,0,0,0,1.000,1.000,1.000,-90.00,180.00,-18.00,CLOSED,0
671048.096,0,0,0,1.000,1.000,1.000,-90.00,180.00,-18.00,CLOSED,0
671048.103,0,0,0,1.000,1.000,1.000,-90.00,180.00,-18.00,CLOSED,0
671048.112,0,0,0,1.000,1.000,1.000,-90.00,180.00,-18.00,CLOSED,0
671048.116,0,0,0,1.000,1.000,1.000,-90.00,180.00,-18.00,CLOSED,0
671048.121,0,0,0,1.000,1.000,1.000,-90.00,180.00,-18.00,CLOSED,0
671048.125,0,0,0,1.000,1.000,1.000,-90.00,180.00,-18.00,CLOSED,0
671048.129,0,0,0,1.000,1.000,1.000,-90.00,180.00,-18.00,CLOSED,0
671048.133,0,0,0,1.000,1.000,1.000,-90.00,180.00,-18.00,CLOSED,0
671048.137,0,0,0,1.000,1.000,1.000,-90.00,180.00,-18.00,CLOSED,0
671048.141,0,0,0,1.000,1.000,1.000,-90.00,180.00,-18.00,CLOSED,0
671048.153,0,0,0,1.000,1.000,1.000,-90.00,180.00,-18.00,CLOSED,0
671048.157,0,0,0,1.000,1.000,1.000,-90.00,180.00,-18.00,CLOSED,0
671048.165,0,0,0,1.000,1.000,1.000,-90.00,180.00,-18.00,CLOSED,0
671048.174,0,0,0,1.000,1.000,1.000,-90.00,180.00,-18.00,CLOSED,0
671048.179,0,0,0,1.000,1.000,1.000,-90.00,180.00,-18.00,CLOSED,0
671048.183,0,0,0,1.000,1.000,1.000,-90.00,180.00,-18.00,CLOSED,0
671048.187,0,0,0,1.000,1.000,1.000,-90.00,180.00,-18.00,CLOSED,0
671048.190,0,0,0,1.000,1.000,1.000,-90.00,180.00,-18.00,CLOSED,0
671048.194,0,0,0,1.000,1.000,1.000,-90.00,180.00,-18.00,CLOSED,0
671048.198,0,0,0,1.000,1.000,1.000,-90.00,180.00,-18.00,CLOSED,0
671048.202,0,0,0,1.000,1.000,1.000,-90.00,180.00,-18.00,CLOSED,0
671048.206,0,0,0,1.000,1.000,1.000,-90.00,180.00,-18.00,CLOSED,0
671048.209,0,0,0,1.000,1.000,1.000,-90.00,180.00,-18.00,CLOSED,0
671048.213,0,0,0,1.000,1.000,1.000,-90.00,180.00,-18.00,CLOSED,0
671048.217,0,0,0,1.000,1.000,1.000,-90.00,180.00,-18.00,CLOSED,0
671048.221,0,0,0,1.000,1.000,1.000,-90.00,180.00,-18.00,CLOSED,0
671048.224,0,0,0,1.000,1.000,1.000,-90.00,180.00,-18.00,CLOSED,0
671048.228,0,0,0,1.000,1.000,1.000,-90.00,180.00,-18.00,CLOSED,0
671048.232,0,0,0,1.000,1.000,1.000,-90.00,180.00,-18.00,CLOSED,0
671048.236,0,0,0,1.000,1.000,1.000,-90.00,180.00,-18.00,CLOSED,0
671048.245,0,0,0,1.000,1.000,1.000,-90.00,180.00,-18.00,CLOSED,0
671048.250,0,0,0,1.000,1.000,1.000,-90.00,180.00,-18.00,CLOSED,0
671048.255,0,0,0,1.000,1.000,1.000,-90.00,180.00,-18.00,CLOSED,0
671048.259,0,0,0,1.000,1.000,1.000,-90.00,180.00,-18.00,CLOSED,0
671048.266,0,0,0,1.000,1.000,1.000,-90.00,180.00,-18.00,CLOSED,0
671048.272,0,0,0,1.000,1.000,1.000,-90.00,180.00,-18.00,CLOSED,0
671048.276,0,0,0,1.000,1.000,1.000,-90.00,180.00,-18.00,CLOSED,0
671048.281,0,0,0,1.000,1.000,1.000,-90.00,180.00,-18.00,CLOSED,0
671048.288,0,0,0,1.000,1.000,1.000,-90.00,180.00,-18.00,CLOSED,0
671048.293,0,0,0,1.000,1.000,1.000,-90.00,180.00,-18.00,CLOSED,0
671048.300,0,0,0,1.000,1.000,1.000,-90.00,180.00,-18.00,CLOSED,0
671048.306,0,0,0,1.000,1.000,1.000,-90.00,180.00,-18.00,CLOSED,0
671048.312,0,0,0,1.000,1.000,1.000,-90.00,180.00,-18.00,CLOSED,0
671048.317,0,0,0,1.000,1.000,1.000,-90.00,180.00,-18.00,CLOSED,0
671048.324,0,0,0,1.000,1.000,1.000,-90.00,180.00,-18.00,CLOSED,0
671048.329,0,0,0,1.000,1.000,1.000,-90.00,180.00,-18.00,CLOSED,0
671048.334,0,0,0,1.000,1.000,1.000,-90.00,180.00,-18.00,CLOSED,0
671048.338,0,0,0,1.000,1.000,1.000,-90.00,180.00,-18.00,CLOSED,0
671048.342,0,0,0,1.000,1.000,1.000,-90.00,180.00,-18.00,CLOSED,0
671048.349,0,0,0,1.000,1.000,1.000,-90.00,180.00,-18.00,CLOSED,0
671048.355,0,0,0,1.000,1.000,1.000,-90.00,180.00,-18.00,CLOSED,0
671048.358,0,0,0,1.000,1.000,1.000,-90.00,180.00,-18.00,CLOSED,0
671048.363,0,0,0,1.000,1.000,1.000,-90.00,180.00,-18.00,CLOSED,0
671048.367,0,0,0,1.000,1.000,1.000,-90.00,180.00,-18.00,CLOSED,0
671048.371,0,0,0,1.000,1.000,1.000,-90.00,180.00,-18.00,CLOSED,0
671048.375,0,0,0,1.000,1.000,1.000,-90.00,180.00,-18.00,CLOSED,0
671048.379,0,0,0,1.000,1.000,1.000,-90.00,180.00,-18.00,CLOSED,0
671048.382,0,0,0,1.000,1.000,1.000,-90.00,180.00,-18.00,CLOSED,0
671048.388,0,0,0,1.000,1.000,1.000,-90.00,180.00,-18.00,CLOSED,0
671048.399,0,0,0,1.000,1.000,1.000,-90.00,180.00,-18.00,CLOSED,0
671048.408,0,0,0,1.000,1.000,1.000,-90.00,180.00,-18.00,CLOSED,0
671048.415,0,0,0,1.000,1.000,1.000,-90.00,180.00,-18.00,CLOSED,0
671048.422,0,0,0,1.000,1.000,1.000,-90.00,180.00,-18.00,CLOSED,0
671048.428,0,0,0,1.000,1.000,1.000,-90.00,180.00,-18.00,CLOSED,0
671048.434,0,0,0,1.000,1.000,1.000,-90.00,180.00,-18.00,CLOSED,0
671048.439,0,0,0,1.000,1.000,1.000,-90.00,180.00,-18.00,CLOSED,0
671048.444,0,0,0,1.000,1.000,1.000,-90.00,180.00,-18.00,CLOSED,0
671048.448,0,0,0,1.000,1.000,1.000,-90.00,180.00,-18.00,CLOSED,0
671048.452,0,0,0,1.000,1.000,1.000,-90.00,180.00,-18.00,CLOSED,0
671048.456,0,0,0,0.768,1.000,1.000,-90.00,180.00,-18.00,CLOSED,0
671048.460,0,0,0,0.955,1.000,1.000,-90.00,180.00,-18.00,CLOSED,0
671048.464,0,0,0,0.990,1.000,1.000,-90.00,180.00,-18.00,CLOSED,0
671048.468,0,0,0,0.998,1.000,1.000,-90.00,180.00,-18.00,CLOSED,0
671048.472,0,0,0,0.999,1.000,1.000,-90.00,180.00,-18.00,CLOSED,0
671048.479,0,0,0,1.000,1.000,1.000,-90.00,180.00,-18.00,CLOSED,0
671048.488,0,0,0,1.000,1.000,1.000,-90.00,180.00,-18.00,CLOSED,0
671048.496,0,0,0,1.000,1.000,1.000,-90.00,180.00,-18.00,CLOSED,0
671048.504,3,0,0,1.000,1.000,1.000,-90.00,180.00,-18.00,OPEN,0
671048.515,3,0,0,1.000,1.000,1.000,-90.00,180.00,-18.00,OPEN,0
671048.520,3,0,0,1.000,1.000,1.000,-90.00,180.00,-18.00,OPEN,0
671048.525,3,0,0,1.000,1.000,1.000,-90.00,180.00,-18.00,OPEN,0
671048.530,3,0,0,1.000,1.000,1.000,-90.00,180.00,-18.00,OPEN,0
671048.536,3,0,0,1.000,1.000,1.000,-90.00,180.00,-18.00,OPEN,0
671048.540,3,0,0,1.000,1.000,1.000,-90.00,180.00,-18.00,OPEN,0
671048.544,3,0,0,1.000,1.000,1.000,-90.00,180.00,-18.00,OPEN,0
671048.548,3,0,0,1.000,1.000,1.000,-90.00,180.00,-18.00,OPEN,0
671048.553,3,0,0,1.000,1.000,1.000,-90.00,180.00,-18.00,OPEN,0
671048.557,3,0,0,1.000,1.000,1.000,-90.00,180.00,-18.00,OPEN,0
671048.563,3,0,0,1.000,1.000,1.000,-90.00,180.00,-18.00,OPEN,0
671048.569,3,0,0,1.000,1.000,1.000,-90.00,180.00,-18.00,OPEN,0
671048.574,3,0,0,1.000,1.000,1.000,-90.00,180.00,-18.00,OPEN,0
671048.579,3,0,0,1.000,1.000,1.000,-90.00,180.00,-18.00,OPEN,0
671048.584,3,0,0,1.000,1.000,1.000,-90.00,180.00,-18.00,OPEN,0
671048.592,3,0,0,1.000,1.000,1.000,-90.00,180.00,-18.00,OPEN,0
671048.597,3,0,0,1.000,1.000,1.000,-90.00,180.00,-18.00,OPEN,0
671048.601,3,0,0,1.000,1.000,1.000,-90.00,180.00,-18.00,OPEN,0
671048.605,3,0,0,1.000,1.000,1.000,-90.00,180.00,-18.00,OPEN,0
671048.609,3,0,0,1.000,1.000,1.000,-90.00,180.00,-18.00,OPEN,0
671048.612,3,0,0,1.000,1.000,1.000,-90.00,180.00,-18.00,OPEN,0
671048.616,3,0,0,1.000,1.000,1.000,-90.00,180.00,-18.00,OPEN,0
671048.620,3,0,0,1.000,1.000,1.000,-90.00,180.00,-18.00,OPEN,0
671048.624,3,0,0,1.000,1.000,1.000,-90.00,180.00,-18.00,OPEN,0
671048.628,3,0,0,1.000,1.000,1.000,-90.00,180.00,-18.00,OPEN,0
671048.632,3,0,0,1.000,1.000,1.000,-90.00,180.00,-18.00,OPEN,0
671048.638,3,0,0,1.000,1.000,1.000,-90.00,180.00,-18.00,OPEN,0
671048.642,3,0,0,1.000,1.000,1.000,-90.00,180.00,-18.00,OPEN,0
671048.646,3,0,0,1.000,1.000,1.000,-90.00,180.00,-18.00,OPEN,0
671048.650,3,0,0,1.000,1.000,1.000,-90.00,180.00,-18.00,OPEN,0
671048.655,3,0,0,1.000,1.000,1.000,-90.00,180.00,-18.00,OPEN,0
671048.660,3,0,0,1.000,1.000,1.000,-90.00,180.00,-18.00,OPEN,0
671048.670,3,0,0,1.000,1.000,1.000,-90.00,180.00,-18.00,OPEN,0
671048.679,3,0,0,1.000,1.000,1.000,-90.00,180.00,-18.00,OPEN,0
671048.688,3,0,0,1.000,1.000,1.000,-90.00,180.00,-18.00,OPEN,0
671048.700,3,0,0,1.000,1.000,1.000,-90.00,180.00,-18.00,OPEN,0
671048.706,3,0,0,1.000,1.000,1.000,-90.00,180.00,-18.00,OPEN,0
671048.710,3,0,0,1.000,1.000,1.000,-90.00,180.00,-18.00,OPEN,0
671048.715,3,0,0,1.000,1.000,1.000,-90.00,180.00,-18.00,OPEN,0
671048.720,3,0,0,1.000,1.000,1.000,-90.00,180.00,-18.00,OPEN,0
671048.723,3,0,0,1.000,1.000,1.000,-90.00,180.00,-18.00,OPEN,0
671048.727,3,0,0,1.000,1.000,1.000,-90.00,180.00,-18.00,OPEN,0
671048.731,3,0,0,1.000,1.000,1.000,-90.00,180.00,-18.00,OPEN,0
671048.735,3,0,0,1.000,1.000,1.000,-90.00,180.00,-18.00,OPEN,0
671048.740,3,0,0,1.000,1.000,1.000,-90.00,180.00,-18.00,OPEN,0
671048.743,3,0,0,1.000,1.000,1.000,-90.00,180.00,-18.00,OPEN,0
671048.747,3,0,0,1.000,1.000,1.000,-90.00,180.00,-18.00,OPEN,0
671048.752,3,0,0,1.000,1.000,1.000,-90.00,180.00,-18.00,OPEN,0
671048.757,3,0,0,1.000,1.000,1.000,-90.00,180.00,-18.00,OPEN,0
671048.760,3,0,0,1.000,1.000,1.000,-90.00,180.00,-18.00,OPEN,0
671048.765,3,0,0,1.000,1.000,1.000,-90.00,180.00,-18.00,OPEN,0
671048.769,3,0,0,1.000,1.000,1.000,-90.00,180.00,-18.00,OPEN,0
671048.773,3,0,0,1.000,1.000,1.000,-90.00,180.00,-18.00,OPEN,0
671048.777,3,0,0,1.000,1.000,1.000,-90.00,180.00,-18.00,OPEN,0
671048.785,3,0,0,1.000,1.000,1.000,-90.00,180.00,-18.00,OPEN,0
671048.795,3,0,0,1.000,1.000,1.000,-90.00,180.00,-18.00,OPEN,0
671048.805,3,0,0,1.000,1.000,1.000,-90.00,180.00,-18.00,OPEN,0
671048.813,3,0,0,1.000,1.000,1.000,-90.00,180.00,-18.00,OPEN,0
671048.822,3,0,0,1.000,1.000,1.000,-90.00,180.00,-18.00,OPEN,0
671048.829,3,0,0,1.000,1.000,1.000,-90.00,180.00,-18.00,OPEN,0
671048.834,3,0,0,1.000,1.000,1.000,-90.00,180.00,-18.00,OPEN,0
671048.842,3,0,0,1.000,1.000,1.000,-90.00,180.00,-18.00,OPEN,0
671048.850,3,0,0,1.000,1.000,1.000,-90.00,180.00,-18.00,OPEN,0
671048.859,3,0,0,1.000,1.000,1.000,-90.00,180.00,-18.00,OPEN,0
671048.869,3,0,0,1.000,1.000,1.000,-90.00,180.00,-18.00,OPEN,0
671048.878,3,0,0,1.000,1.000,1.000,-90.00,180.00,-18.00,OPEN,0
671048.888,3,0,0,1.000,1.000,1.000,-90.00,180.00,-18.00,OPEN,0
671048.896,3,0,0,1.000,1.000,1.000,-90.00,180.00,-18.00,OPEN,0
671048.904,3,0,0,1.000,1.000,1.000,-90.00,180.00,-18.00,OPEN,0
671048.911,3,0,0,1.000,1.000,1.000,-90.00,180.00,-18.00,OPEN,0
671048.920,3,0,0,1.000,1.000,1.000,-90.00,180.00,-18.00,OPEN,0
671048.928,3,0,0,1.000,1.000,1.000,-90.00,180.00,-18.00,OPEN,0
671048.936,3,0,0,1.000,1.000,1.000,-90.00,180.00,-18.00,OPEN,0
671048.944,3,0,0,1.000,1.000,1.000,-90.00,180.00,-18.00,OPEN,0
671048.952,3,0,0,1.000,1.000,1.000,-90.00,180.00,-18.00,OPEN,0
671048.960,3,0,0,1.000,1.000,1.000,-90.00,180.00,-18.00,OPEN,0
671048.968,3,0,0,1.000,1.000,1.000,-90.00,180.00,-18.00,OPEN,0
671048.974,3,0,0,1.000,1.000,1.000,-90.00,180.00,-18.00,OPEN,0
671048.978,3,0,0,1.000,1.000,1.000,-90.00,180.00,-18.00,OPEN,0
671048.982,3,0,0,1.000,1.000,1.000,-90.00,180.00,-18.00,OPEN,0
671048.986,3,0,0,1.000,1.000,1.000,-90.00,180.00,-18.00,OPEN,0
671048.994,3,0,0,1.000,1.000,1.000,-90.00,180.00,-18.00,OPEN,0
671048.997,3,0,0,1.000,1.000,1.000,-90.00,180.00,-18.00,OPEN,0
671049.001,3,0,0,1.000,1.000,1.000,-90.00,180.00,-18.00,OPEN,0
671049.005,3,0,0,1.000,1.000,1.000,-90.00,180.00,-18.00,OPEN,0
671049.009,3,0,0,1.000,1.000,1.000,-90.00,180.00,-18.00,OPEN,0
671049.013,3,0,0,1.000,1.000,1.000,-90.00,180.00,-18.00,OPEN,0
671049.017,3,0,0,1.000,1.000,1.000,-90.00,180.00,-18.00,OPEN,0
671049.022,3,0,0,1.000,1.000,1.000,-90.00,180.00,-18.00,OPEN,0
671049.026,3,0,0,1.000,1.000,1.000,-90.00,180.00,-18.00,OPEN,0
671049.030,3,0,0,1.000,1.000,1.000,-90.00,180.00,-18.00,OPEN,0
671049.034,3,0,0,1.000,1.000,1.000,-90.00,180.00,-18.00,OPEN,0
671049.038,3,0,0,1.000,1.000,1.000,-90.00,180.00,-18.00,OPEN,0
671049.042,3,0,0,1.000,1.000,1.000,-90.00,180.00,-18.00,OPEN,0
671049.047,3,0,0,1.000,1.000,1.000,-90.00,180.00,-18.00,OPEN,0
671049.052,3,0,0,1.000,1.000,1.000,-90.00,180.00,-18.00,OPEN,0
671049.061,3,0,0,1.000,1.000,1.000,-90.00,180.00,-18.00,OPEN,0
671049.066,3,0,0,1.000,1.000,1.000,-90.00,180.00,-18.00,OPEN,0
671049.070,3,0,0,1.000,1.000,1.000,-90.00,180.00,-18.00,OPEN,0
671049.074,3,0,0,1.000,1.000,1.000,-90.00,180.00,-18.00,OPEN,0
671049.078,3,0,0,1.000,1.000,1.000,-90.00,180.00,-18.00,OPEN,0
671049.082,3,0,0,1.000,1.000,1.000,-90.00,180.00,-18.00,OPEN,0
671049.086,3,0,0,1.000,1.000,1.000,-90.00,180.00,-18.00,OPEN,0
671049.090,3,0,0,1.000,1.000,1.000,-90.00,180.00,-18.00,OPEN,0
671049.094,3,0,0,1.000,1.000,1.000,-90.00,180.00,-18.00,OPEN,0
671049.098,3,0,0,1.000,1.000,1.000,-90.00,180.00,-18.00,OPEN,0
671049.102,3,0,0,1.000,1.000,1.000,-90.00,180.00,-18.00,OPEN,0
671049.106,3,0,0,1.000,1.000,1.000,-90.00,180.00,-18.00,OPEN,0
671049.110,3,0,0,1.000,1.000,1.000,-90.00,180.00,-18.00,OPEN,0
671049.114,3,0,0,1.000,1.000,1.000,-90.00,180.00,-18.00,OPEN,0
671049.118,3,0,0,1.000,1.000,1.000,-90.00,180.00,-18.00,OPEN,0
671049.126,3,0,0,1.000,1.000,1.000,-90.00,180.00,-18.00,OPEN,0
671049.131,3,0,0,1.000,1.000,1.000,-90.00,180.00,-18.00,OPEN,0
671049.135,3,0,0,1.000,1.000,1.000,-90.00,180.00,-18.00,OPEN,0
671049.138,3,0,0,1.000,1.000,1.000,-90.00,180.00,-18.00,OPEN,0
671049.142,3,0,0,1.000,1.000,1.000,-90.00,180.00,-18.00,OPEN,0
671049.146,3,0,0,0.998,1.000,1.000,-90.00,180.00,-18.00,OPEN,0
671049.150,3,0,0,0.973,1.000,1.000,-90.00,180.00,-18.00,OPEN,0
671049.154,3,0,0,0.588,1.000,1.000,-90.00,180.00,-18.00,OPEN,0
671049.158,3,0,0,1.000,1.000,1.000,-90.00,180.00,-18.00,OPEN,0
671049.163,3,0,0,1.000,1.000,1.000,-90.00,180.00,-18.00,OPEN,0
671049.168,3,0,0,1.000,1.000,1.000,-90.00,180.00,-18.00,OPEN,0
671049.174,3,0,0,1.000,1.000,1.000,-90.00,180.00,-18.00,OPEN,0
671049.179,3,0,0,1.000,1.000,1.000,-90.00,180.00,-18.00,OPEN,0
671049.184,3,0,0,1.000,1.000,1.000,-90.00,180.00,-18.00,OPEN,0
671049.189,3,0,0,1.000,1.000,1.000,-90.00,180.00,-18.00,OPEN,0
671049.194,0,0,0,1.000,1.000,1.000,-90.00,180.00,-18.00,OPEN,0
671049.198,0,0,0,1.000,1.000,1.000,-90.00,180.00,-18.00,OPEN,0
671049.203,0,0,0,1.000,1.000,1.000,-90.00,180.00,-18.00,OPEN,0
671049.208,0,0,0,1.000,1.000,1.000,-90.00,180.00,-18.00,OPEN,0
671049.212,0,0,0,1.000,1.000,1.000,-90.00,180.00,-18.00,OPEN,0
671049.216,0,0,0,1.000,1.000,1.000,-90.00,180.00,-18.00,OPEN,0
671049.220,0,0,0,1.000,1.000,1.000,-90.00,180.00,-18.00,OPEN,0
671049.225,0,0,0,1.000,1.000,1.000,-90.00,180.00,-18.00,OPEN,0
671049.230,0,0,0,1.000,1.000,1.000,-90.00,180.00,-18.00,OPEN,0
671049.234,0,0,0,1.000,1.000,1.000,-90.00,180.00,-18.00,OPEN,0
671049.239,0,0,0,1.000,1.000,1.000,-90.00,180.00,-18.00,OPEN,0
671049.243,0,0,0,1.000,1.000,1.000,-90.00,180.00,-18.00,OPEN,0
671049.251,0,0,0,1.000,1.000,1.000,-90.00,180.00,-18.00,OPEN,0
671049.257,0,0,0,1.000,1.000,1.000,-90.00,180.00,-18.00,OPEN,0
671049.260,0,0,0,1.000,1.000,1.000,-90.00,180.00,-18.00,OPEN,0
671049.265,0,0,0,1.000,1.000,1.000,-90.00,180.00,-18.00,OPEN,0
671049.269,0,0,0,1.000,1.000,1.000,-90.00,180.00,-18.00,OPEN,0
671049.273,0,0,0,1.000,1.000,1.000,-90.00,180.00,-18.00,OPEN,0
671049.277,0,0,0,1.000,1.000,1.000,-90.00,180.00,-18.00,OPEN,0
671049.282,0,0,0,1.000,1.000,1.000,-90.00,180.00,-18.00,OPEN,0
671049.288,0,0,0,1.000,1.000,1.000,-90.00,180.00,-18.00,OPEN,0
671049.292,0,0,0,1.000,1.000,1.000,-90.00,180.00,-18.00,OPEN,0
671049.296,0,0,0,1.000,1.000,1.000,-90.00,180.00,-18.00,OPEN,0
671049.299,0,0,0,1.000,1.000,1.000,-90.00,180.00,-18.00,OPEN,0
671049.304,0,0,0,1.000,1.000,1.000,-90.00,180.00,-18.00,OPEN,0
671049.310,0,0,0,1.000,1.000,1.000,-90.00,180.00,-18.00,OPEN,0
671049.314,0,0,0,1.000,1.000,1.000,-90.00,180.00,-18.00,OPEN,0
671049.319,0,0,0,1.000,1.000,1.000,-90.00,180.00,-18.00,OPEN,0
671049.325,0,0,0,1.000,1.000,1.000,-90.00,180.00,-18.00,OPEN,0
671049.331,0,0,0,1.000,1.000,1.000,-90.00,180.00,-18.00,OPEN,0
671049.337,0,0,0,1.000,1.000,1.000,-90.00,180.00,-18.00,OPEN,0
671049.342,0,0,0,1.000,1.000,1.000,-90.00,180.00,-18.00,OPEN,0
671049.347,0,0,0,1.000,1.000,1.000,-90.00,180.00,-18.00,OPEN,0
671049.351,0,0,0,1.000,1.000,1.000,-90.00,180.00,-18.00,OPEN,0
671049.359,0,0,0,1.000,1.000,1.000,-90.00,180.00,-18.00,OPEN,0
671049.364,0,0,0,1.000,1.000,1.000,-90.00,180.00,-18.00,OPEN,0
671049.369,0,0,0,1.000,1.000,1.000,-90.00,180.00,-18.00,OPEN,0
671049.373,0,0,0,1.000,1.000,1.000,-90.00,180.00,-18.00,OPEN,0
671049.377,0,0,0,1.000,1.000,1.000,-90.00,180.00,-18.00,OPEN,0
671049.381,0,0,0,1.000,1.000,1.000,-90.00,180.00,-18.00,OPEN,0
671049.386,0,0,0,1.000,1.000,1.000,-90.00,180.00,-18.00,OPEN,0
671049.394,0,0,0,1.000,1.000,1.000,-90.00,180.00,-18.00,OPEN,0
671049.402,0,0,0,1.000,1.000,1.000,-90.00,180.00,-18.00,OPEN,0
671049.406,0,0,0,1.000,1.000,1.000,-90.00,180.00,-18.00,OPEN,0
671049.409,0,0,0,1.000,1.000,1.000,-90.00,180.00,-18.00,OPEN,0
671049.413,0,0,0,1.000,1.000,1.000,-90.00,180.00,-18.00,OPEN,0
671049.418,0,0,0,1.000,1.000,1.000,-90.00,180.00,-18.00,OPEN,0
671049.427,0,0,0,1.000,1.000,1.000,-90.00,180.00,-18.00,OPEN,0
671049.431,0,0,0,1.000,1.000,1.000,-90.00,180.00,-18.00,OPEN,0
671049.436,0,0,0,1.000,1.000,1.000,-90.00,180.00,-18.00,OPEN,0
671049.442,0,0,0,1.000,1.000,1.000,-90.00,180.00,-18.00,OPEN,0
671049.449,0,0,0,1.000,1.000,1.000,-90.00,180.00,-18.00,OPEN,0
671049.456,0,0,0,1.000,1.000,1.000,-90.00,180.00,-18.00,OPEN,0
671049.461,0,0,0,1.000,1.000,1.000,-90.00,180.00,-18.00,OPEN,0
671049.466,0,0,0,1.000,1.000,1.000,-90.00,180.00,-18.00,OPEN,0
671049.472,0,0,0,1.000,1.000,1.000,-90.00,180.00,-18.00,OPEN,0
671049.476,0,0,0,1.000,1.000,1.000,-90.00,180.00,-18.00,OPEN,0
671049.480,0,0,0,1.000,1.000,1.000,-90.00,180.00,-18.00,OPEN,0
671049.484,0,0,0,1.000,1.000,1.000,-90.00,180.00,-18.00,OPEN,0
671049.491,0,0,0,1.000,1.000,1.000,-90.00,180.00,-18.00,OPEN,0
671049.495,0,0,0,1.000,1.000,1.000,-90.00,180.00,-18.00,OPEN,0
671049.499,0,0,0,1.000,1.000,1.000,-90.00,180.00,-18.00,OPEN,0
671049.503,0,0,0,1.000,1.000,1.000,-90.00,180.00,-18.00,OPEN,0
671049.512,0,0,0,1.000,1.000,1.000,-90.00,180.00,-18.00,OPEN,0
671049.516,0,0,0,1.000,1.000,1.000,-90.00,180.00,-18.00,OPEN,0
671049.521,0,0,0,1.000,1.000,1.000,-90.00,180.00,-18.00,OPEN,0
671049.525,0,0,0,1.000,1.000,1.000,-90.00,180.00,-18.00,OPEN,0
671049.529,0,0,0,1.000,1.000,1.000,-90.00,180.00,-18.00,OPEN,0
671049.533,0,0,0,1.000,1.000,1.000,-90.00,180.00,-18.00,OPEN,0
671049.538,0,0,0,1.000,1.000,1.000,-90.00,180.00,-18.00,OPEN,0
671049.542,0,0,0,1.000,1.000,1.000,-90.00,180.00,-18.00,OPEN,0
671049.546,0,0,0,1.000,1.000,1.000,-90.00,180.00,-18.00,OPEN,0
671049.550,0,0,0,1.000,1.000,1.000,-90.00,180.00,-18.00,OPEN,0
671049.554,0,0,0,1.000,1.000,1.000,-90.00,180.00,-18.00,OPEN,0
671049.558,0,0,0,1.000,1.000,1.000,-90.00,180.00,-18.00,OPEN,0
671049.562,0,0,0,1.000,1.000,1.000,-90.00,180.00,-18.00,OPEN,0
671049.566,0,0,0,1.000,1.000,1.000,-90.00,180.00,-18.00,OPEN,0
671049.573,0,0,0,1.000,1.000,1.000,-90.00,180.00,-18.00,OPEN,0
671049.577,0,0,0,1.000,1.000,1.000,-90.00,180.00,-18.00,OPEN,0
671049.581,0,0,0,1.000,1.000,1.000,-90.00,180.00,-18.00,OPEN,0
671049.587,0,0,0,1.000,1.000,1.000,-90.00,180.00,-18.00,OPEN,0
671049.592,0,0,0,1.000,1.000,1.000,-90.00,180.00,-18.00,OPEN,0
671049.596,0,0,0,1.000,1.000,1.000,-90.00,180.00,-18.00,OPEN,0
671049.603,0,0,0,1.000,1.000,1.000,-90.00,180.00,-18.00,OPEN,0
671049.610,0,0,0,1.000,1.000,1.000,-90.00,180.00,-18.00,OPEN,0
671049.618,0,0,0,1.000,1.000,1.000,-90.00,180.00,-18.00,OPEN,0
671049.625,0,0,0,1.000,1.000,1.000,-90.00,180.00,-18.00,OPEN,0
671049.633,0,0,0,1.000,1.000,1.000,-90.00,180.00,-18.00,OPEN,0
671049.640,0,0,0,1.000,1.000,1.000,-90.00,180.00,-18.00,OPEN,0
671049.648,0,0,0,1.000,1.000,1.000,-90.00,180.00,-18.00,OPEN,0
671049.656,0,0,0,1.000,1.000,1.000,-90.00,180.00,-18.00,OPEN,0
671049.664,0,0,0,1.000,1.000,1.000,-90.00,180.00,-18.00,OPEN,0
671049.671,0,0,0,1.000,1.000,1.000,-90.00,180.00,-18.00,OPEN,0
671049.679,0,0,0,1.000,1.000,1.000,-90.00,180.00,-18.00,OPEN,0
671049.683,0,0,0,1.000,1.000,1.000,-90.00,180.00,-18.00,OPEN,0
671049.687,0,0,0,1.000,1.000,1.000,-90.00,180.00,-18.00,OPEN,0
671049.691,0,0,0,1.000,1.000,1.000,-90.00,180.00,-18.00,OPEN,0
671049.700,0,0,0,1.000,1.000,1.000,-90.00,180.00,-18.00,OPEN,0
671049.704,0,0,0,1.000,1.000,1.000,-90.00,180.00,-18.00,OPEN,0
671049.709,0,0,0,1.000,1.000,1.000,-90.00,180.00,-18.00,OPEN,0
671049.718,0,0,0,1.000,1.000,1.000,-90.00,180.00,-18.00,OPEN,0
671049.722,0,0,0,1.000,1.000,1.000,-90.00,180.00,-18.00,OPEN,0
671049.734,0,0,0,1.000,1.000,1.000,-90.00,180.00,-18.00,OPEN,0
671049.744,0,0,0,1.000,1.000,1.000,-90.00,180.00,-18.00,OPEN,0
671049.749,0,0,0,1.000,1.000,1.000,-90.00,180.00,-18.00,OPEN,0
671049.754,0,0,0,1.000,1.000,1.000,-90.00,180.00,-18.00,OPEN,0
671049.759,0,0,0,1.000,1.000,1.000,-90.00,180.00,-18.00,OPEN,0
671049.762,0,0,0,1.000,1.000,1.000,-90.00,180.00,-18.00,OPEN,0
671049.766,0,0,0,1.000,1.000,1.000,-90.00,180.00,-18.00,OPEN,0
671049.771,0,0,0,1.000,1.000,1.000,-90.00,180.00,-18.00,OPEN,0
671049.775,0,0,0,1.000,1.000,1.000,-90.00,180.00,-18.00,OPEN,0
671049.779,0,0,0,1.000,1.000,1.000,-90.00,180.00,-18.00,OPEN,0
671049.783,0,0,0,1.000,1.000,1.000,-90.00,180.00,-18.00,OPEN,0
671049.788,0,0,0,1.000,1.000,1.000,-90.00,180.00,-18.00,OPEN,0
671049.792,0,0,0,1.000,1.000,1.000,-90.00,180.00,-18.00,OPEN,0
671049.796,0,0,0,1.000,1.000,1.000,-90.00,180.00,-18.00,OPEN,0
671049.800,0,0,0,1.000,1.000,1.000,-90.00,180.00,-18.00,OPEN,0
671049.807,0,0,0,1.000,1.000,1.000,-90.00,180.00,-18.00,OPEN,0
671049.811,0,0,0,1.000,1.000,1.000,-90.00,180.00,-18.00,OPEN,0
671049.815,0,0,0,1.000,1.000,1.000,-90.00,180.00,-18.00,OPEN,0
671049.820,0,0,0,1.000,1.000,1.000,-90.00,180.00,-18.00,OPEN,0
671049.824,0,0,0,1.000,1.000,1.000,-90.00,180.00,-18.00,OPEN,0
671049.828,0,0,0,1.000,1.000,1.000,-90.00,180.00,-18.00,OPEN,0
671049.837,0,0,0,1.000,1.000,1.000,-90.00,180.00,-18.00,OPEN,0
671049.844,0,0,0,1.000,1.000,1.000,-90.00,180.00,-18.00,OPEN,0
671049.850,0,0,0,1.000,1.000,1.000,-90.00,180.00,-18.00,OPEN,0
671049.855,0,0,0,1.000,1.000,1.000,-90.00,180.00,-18.00,OPEN,0
671049.860,0,0,0,1.000,1.000,1.000,-90.00,180.00,-18.00,OPEN,0
671049.864,0,0,0,1.000,1.000,1.000,-90.00,180.00,-18.00,OPEN,0
671049.869,0,0,0,1.000,1.000,1.000,-90.00,180.00,-18.00,OPEN,0
671049.873,0,0,0,1.000,1.000,1.000,-90.00,180.00,-18.00,OPEN,0
671049.877,0,0,0,1.000,1.000,1.000,-90.00,180.00,-18.00,OPEN,0
671049.881,0,0,0,1.000,1.000,1.000,-90.00,180.00,-18.00,OPEN,0
671049.886,0,0,0,1.000,1.000,1.000,-90.00,180.00,-18.00,OPEN,0
671049.891,0,0,0,1.000,1.000,1.000,-90.00,180.00,-18.00,OPEN,0
671049.894,0,0,0,1.000,1.000,1.000,-90.00,180.00,-18.00,OPEN,0
671049.900,0,0,0,0.998,1.000,1.000,-90.00,180.00,-18.00,OPEN,0
671049.904,0,0,0,0.993,0.998,1.000,-90.00,180.00,-18.00,OPEN,0
671049.907,0,0,0,0.980,0.978,1.000,-90.00,180.00,-18.00,OPEN,0
671049.911,0,0,0,0.972,0.957,1.000,-90.00,180.00,-18.00,OPEN,0
671049.915,0,0,0,0.958,1.000,1.000,-90.00,180.00,-18.00,OPEN,0
671049.919,0,0,0,0.881,1.000,1.000,-90.00,180.00,-18.00,OPEN,0
671049.923,0,0,0,0.600,1.000,1.000,-90.00,180.00,-18.00,OPEN,0
671049.927,0,0,0,0.496,1.000,1.000,-90.00,180.00,-18.00,OPEN,0
671049.932,0,0,0,0.629,1.000,1.000,-90.00,180.00,-18.00,OPEN,0
671049.936,0,0,0,0.832,1.000,1.000,-90.00,180.00,-18.00,OPEN,0
671049.941,0,0,0,0.889,1.000,1.000,-90.00,180.00,-18.00,OPEN,0
671049.945,0,0,0,0.903,1.000,1.000,-90.00,180.00,-18.00,OPEN,0
671049.949,0,0,0,0.939,1.000,1.000,-90.00,180.00,-18.00,OPEN,0
671049.952,0,0,0,0.955,1.000,1.000,-90.00,180.00,-18.00,OPEN,0
671049.956,0,0,0,0.949,1.000,1.000,-90.00,180.00,-18.00,OPEN,0
671049.960,2,0,0,0.898,1.000,1.000,-90.00,180.00,-22.50,OPEN,1
671049.964,2,0,0,0.730,1.000,1.000,-90.00,180.00,-22.50,OPEN,0
671049.972,2,0,0,0.525,1.000,1.000,-90.00,180.00,-22.50,OPEN,0
671049.979,2,0,0,0.780,1.000,1.000,-90.00,180.00,-22.50,OPEN,0
671049.984,2,0,0,0.922,1.000,1.000,-90.00,180.00,-22.50,OPEN,0
671049.988,2,0,0,0.972,1.000,1.000,-90.00,180.00,-22.50,OPEN,0
671049.994,2,0,0,0.987,1.000,1.000,-90.00,180.00,-22.50,OPEN,0
671050.001,2,0,0,0.993,1.000,1.000,-90.00,180.00,-22.50,OPEN,0
671050.007,2,0,0,0.996,1.000,1.000,-90.00,180.00,-22.50,OPEN,0
671050.013,2,0,0,0.997,1.000,1.000,-90.00,180.00,-22.50,OPEN,0
671050.020,0,0,0,0.998,1.000,1.000,-90.00,180.00,-22.50,OPEN,0
671050.026,0,0,0,0.998,1.000,1.000,-90.00,180.00,-22.50,OPEN,0
671050.033,0,0,0,0.998,1.000,1.000,-90.00,180.00,-22.50,OPEN,0
671050.040,0,0,0,0.998,1.000,1.000,-90.00,180.00,-22.50,OPEN,0
671050.045,0,0,0,1.000,1.000,1.000,-90.00,180.00,-22.50,OPEN,0
671050.051,0,0,0,1.000,1.000,1.000,-90.00,180.00,-22.50,OPEN,0
671050.057,0,0,0,1.000,1.000,1.000,-90.00,180.00,-22.50,OPEN,0
671050.062,0,0,0,1.000,1.000,1.000,-90.00,180.00,-22.50,OPEN,0
671050.068,0,0,0,1.000,1.000,1.000,-90.00,180.00,-22.50,OPEN,0
671050.077,0,0,0,1.000,1.000,1.000,-90.00,180.00,-22.50,OPEN,0
671050.081,0,0,0,1.000,1.000,1.000,-90.00,180.00,-22.50,OPEN,0
671050.085,0,0,0,1.000,1.000,1.000,-90.00,180.00,-22.50,OPEN,0
671050.090,0,0,0,1.000,1.000,1.000,-90.00,180.00,-22.50,OPEN,0
671050.094,0,0,0,1.000,1.000,1.000,-90.00,180.00,-22.50,OPEN,0
671050.098,0,0,0,1.000,1.000,1.000,-90.00,180.00,-22.50,OPEN,0
671050.103,0,0,0,1.000,1.000,1.000,-90.00,180.00,-22.50,OPEN,0
671050.107,0,0,0,1.000,1.000,1.000,-90.00,180.00,-22.50,OPEN,0
671050.111,0,0,0,1.000,1.000,1.000,-90.00,180.00,-22.50,OPEN,0
671050.116,0,0,0,1.000,1.000,1.000,-90.00,180.00,-22.50,OPEN,0
671050.121,0,0,0,1.000,1.000,1.000,-90.00,180.00,-22.50,OPEN,0
671050.126,0,0,0,1.000,1.000,1.000,-90.00,180.00,-22.50,OPEN,0
671050.133,0,0,0,1.000,1.000,1.000,-90.00,180.00,-22.50,OPEN,0
671050.138,0,0,0,1.000,1.000,1.000,-90.00,180.00,-22.50,OPEN,0
671050.142,0,0,0,1.000,1.000,1.000,-90.00,180.00,-22.50,OPEN,0
671050.147,0,0,0,1.000,1.000,1.000,-90.00,180.00,-22.50,OPEN,0
671050.151,0,0,0,1.000,1.000,1.000,-90.00,180.00,-22.50,OPEN,0
671050.155,0,0,0,1.000,1.000,1.000,-90.00,180.00,-22.50,OPEN,0
671050.159,0,0,0,1.000,1.000,1.000,-90.00,180.00,-22.50,OPEN,0
671050.163,0,0,0,1.000,1.000,1.000,-90.00,180.00,-22.50,OPEN,0
671050.167,0,0,0,1.000,1.000,1.000,-90.00,180.00,-22.50,OPEN,0
671050.171,0,0,0,1.000,1.000,1.000,-90.00,180.00,-22.50,OPEN,0
671050.175,0,0,0,1.000,1.000,1.000,-90.00,180.00,-22.50,OPEN,0
671050.183,0,0,0,1.000,1.000,1.000,-90.00,180.00,-22.50,OPEN,0
671050.188,0,0,0,1.000,1.000,1.000,-90.00,180.00,-22.50,OPEN,0
671050.192,0,0,0,1.000,1.000,1.000,-90.00,180.00,-22.50,OPEN,0
671050.197,0,0,0,1.000,1.000,1.000,-90.00,180.00,-22.50,OPEN,0
671050.201,0,0,0,1.000,1.000,1.000,-90.00,180.00,-22.50,OPEN,0
671050.207,0,0,0,1.000,1.000,1.000,-90.00,180.00,-22.50,OPEN,0
671050.211,0,0,0,1.000,1.000,1.000,-90.00,180.00,-22.50,OPEN,0
671050.217,0,0,0,1.000,1.000,1.000,-90.00,180.00,-22.50,OPEN,0
671050.222,0,0,0,1.000,1.000,1.000,-90.00,180.00,-22.50,OPEN,0
671050.226,0,0,0,1.000,1.000,1.000,-90.00,180.00,-22.50,OPEN,0
671050.230,0,0,0,1.000,1.000,1.000,-90.00,180.00,-22.50,OPEN,0
671050.234,0,0,0,1.000,1.000,1.000,-90.00,180.00,-22.50,OPEN,0
671050.240,0,0,0,1.000,1.000,1.000,-90.00,180.00,-22.50,OPEN,0
671050.244,0,0,0,1.000,1.000,1.000,-90.00,180.00,-22.50,OPEN,0
671050.248,0,0,0,1.000,1.000,1.000,-90.00,180.00,-22.50,OPEN,0
671050.252,0,0,0,1.000,1.000,1.000,-90.00,180.00,-22.50,OPEN,0
671050.257,0,0,0,1.000,1.000,1.000,-90.00,180.00,-22.50,OPEN,0
671050.266,0,0,0,1.000,1.000,1.000,-90.00,180.00,-22.50,OPEN,0
671050.270,0,0,0,1.000,1.000,1.000,-90.00,180.00,-22.50,OPEN,0
671050.276,0,0,0,1.000,1.000,1.000,-90.00,180.00,-22.50,OPEN,0
671050.287,0,0,0,1.000,1.000,1.000,-90.00,180.00,-22.50,OPEN,0
671050.298,0,0,0,1.000,1.000,1.000,-90.00,180.00,-22.50,OPEN,0
671050.308,0,0,0,1.000,1.000,1.000,-90.00,180.00,-22.50,OPEN,0
671050.319,0,0,0,1.000,1.000,1.000,-90.00,180.00,-22.50,OPEN,0
671050.328,0,0,0,1.000,1.000,1.000,-90.00,180.00,-22.50,OPEN,0
671050.337,0,0,0,1.000,1.000,1.000,-90.00,180.00,-22.50,OPEN,0
671050.346,0,0,0,1.000,1.000,1.000,-90.00,180.00,-22.50,OPEN,0
671050.354,0,0,0,1.000,1.000,1.000,-90.00,180.00,-22.50,OPEN,0
671050.362,0,0,0,1.000,1.000,1.000,-90.00,180.00,-22.50,OPEN,0
671050.370,0,0,0,1.000,1.000,1.000,-90.00,180.00,-22.50,OPEN,0
671050.379,0,0,0,1.000,1.000,1.000,-90.00,180.00,-22.50,OPEN,0
671050.387,0,0,0,1.000,1.000,1.000,-90.00,180.00,-22.50,OPEN,0
671050.395,0,0,0,1.000,1.000,1.000,-90.00,180.00,-22.50,OPEN,0
671050.403,0,0,0,1.000,1.000,1.000,-90.00,180.00,-22.50,OPEN,0
671050.406,0,0,0,1.000,1.000,1.000,-90.00,180.00,-22.50,OPEN,0
671050.410,0,0,0,1.000,1.000,1.000,-90.00,180.00,-22.50,OPEN,0
671050.416,0,0,0,1.000,1.000,1.000,-90.00,180.00,-22.50,OPEN,0
671050.421,0,0,0,1.000,1.000,1.000,-90.00,180.00,-22.50,OPEN,0
671050.427,0,0,0,1.000,1.000,1.000,-90.00,180.00,-22.50,OPEN,0
671050.431,0,0,0,1.000,1.000,1.000,-90.00,180.00,-22.50,OPEN,0
671050.435,0,0,0,1.000,1.000,1.000,-90.00,180.00,-22.50,OPEN,0
671050.441,0,0,0,1.000,1.000,1.000,-90.00,180.00,-22.50,OPEN,0
671050.445,0,1,0,1.000,1.000,1.000,-90.00,179.74,-22.50,OPEN,0
671050.454,0,1,0,1.000,1.000,1.000,-90.00,179.23,-22.50,OPEN,1
671050.458,0,1,0,1.000,1.000,1.000,-90.00,178.95,-22.50,OPEN,0
671050.466,0,1,0,1.000,1.000,1.000,-90.00,178.46,-22.50,OPEN,0
671050.475,0,1,0,1.000,1.000,1.000,-90.00,177.95,-22.50,OPEN,0
671050.479,0,1,0,1.000,1.000,1.000,-90.00,177.69,-22.50,OPEN,0
671050.487,0,1,0,1.000,1.000,1.000,-90.00,177.21,-22.50,OPEN,0
671050.497,0,1,0,1.000,1.000,1.000,-90.00,176.65,-22.50,OPEN,0
671050.507,0,1,0,1.000,1.000,1.000,-90.00,176.04,-22.50,OPEN,0
671050.516,0,1,0,1.000,1.000,1.000,-90.00,175.52,-22.50,OPEN,0
671050.523,0,1,0,1.000,1.000,1.000,-90.00,175.09,-22.50,OPEN,0
671050.531,0,1,0,1.000,1.000,1.000,-90.00,174.57,-22.50,OPEN,0
671050.540,0,1,0,1.000,1.000,1.000,-90.00,174.08,-22.50,OPEN,0
671050.547,0,1,0,1.000,1.000,1.000,-90.00,173.62,-22.50,OPEN,0
671050.552,0,1,0,1.000,1.000,1.000,-90.00,173.31,-22.50,OPEN,0
671050.561,0,1,0,1.000,1.000,1.000,-90.00,172.80,-22.50,OPEN,1
671050.565,0,1,0,1.000,1.000,1.000,-90.00,172.55,-22.50,OPEN,0
671050.570,0,1,0,1.000,1.000,1.000,-90.00,172.28,-22.50,OPEN,0
671050.577,0,1,0,1.000,1.000,1.000,-90.00,171.85,-22.50,OPEN,0
671050.581,0,1,0,1.000,1.000,1.000,-90.00,171.62,-22.50,OPEN,0
671050.585,0,1,0,1.000,0.993,1.000,-90.00,171.37,-22.50,OPEN,0
671050.589,0,1,0,1.000,0.947,1.000,-90.00,171.09,-22.50,OPEN,0
671050.598,0,1,0,1.000,0.842,1.000,-90.00,170.60,-22.50,OPEN,0
671050.602,0,1,0,1.000,0.684,1.000,-90.00,170.30,-22.50,OPEN,0
671050.607,0,1,0,1.000,0.748,1.000,-90.00,170.03,-22.50,OPEN,0
671050.613,0,1,0,1.000,0.994,1.000,-90.00,169.65,-22.50,OPEN,0
671050.617,0,1,0,1.000,1.000,1.000,-90.00,169.42,-22.50,OPEN,0
671050.625,0,1,0,1.000,1.000,1.000,-90.00,168.95,-22.50,OPEN,0
671050.633,0,1,0,1.000,1.000,1.000,-90.00,168.48,-22.50,OPEN,0
671050.638,0,1,0,1.000,1.000,1.000,-90.00,168.19,-22.50,OPEN,0
671050.644,0,1,0,1.000,1.000,1.000,-90.00,167.84,-22.50,OPEN,0
671050.651,0,1,0,1.000,1.000,1.000,-90.00,167.37,-22.50,OPEN,0
671050.659,0,1,0,1.000,1.000,1.000,-90.00,166.91,-22.50,OPEN,0
671050.663,0,1,0,1.000,1.000,1.000,-90.00,166.68,-22.50,OPEN,1
671050.668,0,1,0,1.000,1.000,1.000,-90.00,166.36,-22.50,OPEN,0
671050.673,0,1,0,1.000,1.000,1.000,-90.00,166.06,-22.50,OPEN,0
671050.679,0,1,0,1.000,1.000,1.000,-90.00,165.73,-22.50,OPEN,0
671050.686,0,1,0,1.000,1.000,1.000,-90.00,165.27,-22.50,OPEN,0
671050.692,0,1,0,1.000,1.000,1.000,-90.00,164.93,-22.50,OPEN,0
671050.699,0,1,0,1.000,1.000,1.000,-90.00,164.49,-22.50,OPEN,0
671050.704,0,1,0,1.000,1.000,1.000,-90.00,164.23,-22.50,OPEN,0
671050.707,0,1,0,1.000,1.000,1.000,-90.00,164.01,-22.50,OPEN,0
671050.711,0,1,0,1.000,1.000,1.000,-90.00,163.77,-22.50,OPEN,0
671050.715,0,1,0,1.000,1.000,1.000,-90.00,163.55,-22.50,OPEN,0
671050.719,0,1,0,1.000,1.000,1.000,-90.00,163.32,-22.50,OPEN,0
671050.723,0,1,0,1.000,1.000,1.000,-90.00,163.07,-22.50,OPEN,0
671050.728,0,1,0,1.000,1.000,1.000,-90.00,162.79,-22.50,OPEN,0
671050.732,0,1,0,1.000,1.000,1.000,-90.00,162.55,-22.50,OPEN,0
671050.736,0,1,0,1.000,1.000,1.000,-90.00,162.30,-22.50,OPEN,0
671050.740,0,1,0,1.000,1.000,1.000,-90.00,162.05,-22.50,OPEN,0
671050.745,0,1,0,1.000,1.000,1.000,-90.00,161.77,-22.50,OPEN,0
671050.749,0,1,0,1.000,1.000,1.000,-90.00,161.52,-22.50,OPEN,0
671050.753,0,1,0,1.000,1.000,1.000,-90.00,161.25,-22.50,OPEN,0
671050.757,0,1,0,1.000,1.000,1.000,-90.00,161.01,-22.50,OPEN,0
671050.761,0,1,0,1.000,1.000,1.000,-90.00,160.78,-22.50,OPEN,0
671050.766,0,1,0,1.000,1.000,1.000,-90.00,160.48,-22.50,OPEN,1
671050.770,0,1,0,1.000,1.000,1.000,-90.00,160.23,-22.50,OPEN,0
671050.774,0,1,0,1.000,1.000,1.000,-90.00,160.00,-22.50,OPEN,0
671050.778,0,1,0,1.000,1.000,1.000,-90.00,159.78,-22.50,OPEN,0
671050.782,0,1,0,1.000,1.000,1.000,-90.00,159.55,-22.50,OPEN,0
671050.785,0,1,0,1.000,1.000,1.000,-90.00,159.34,-22.50,OPEN,0
671050.789,0,1,0,1.000,1.000,1.000,-90.00,159.11,-22.50,OPEN,0
671050.797,0,1,0,1.000,1.000,1.000,-90.00,158.63,-22.50,OPEN,0
671050.801,0,1,0,1.000,1.000,1.000,-90.00,158.37,-22.50,OPEN,0
671050.806,0,1,0,1.000,1.000,1.000,-90.00,158.08,-22.50,OPEN,0
671050.811,0,1,0,1.000,1.000,1.000,-90.00,157.79,-22.50,OPEN,0
671050.817,0,1,0,1.000,1.000,1.000,-90.00,157.42,-22.50,OPEN,0
671050.824,0,1,0,1.000,1.000,1.000,-90.00,157.03,-22.50,OPEN,0
671050.829,0,1,0,1.000,1.000,1.000,-90.00,156.70,-22.50,OPEN,0
671050.835,0,1,0,1.000,1.000,1.000,-90.00,156.36,-22.50,OPEN,0
671050.841,0,1,0,1.000,1.000,1.000,-90.00,156.01,-22.50,OPEN,0
671050.845,0,1,0,1.000,1.000,1.000,-90.00,155.73,-22.50,OPEN,0
671050.850,0,1,0,1.000,1.000,1.000,-90.00,155.45,-22.50,OPEN,0
671050.855,0,1,0,1.000,1.000,1.000,-90.00,155.15,-22.50,OPEN,0
671050.859,0,1,0,1.000,1.000,1.000,-90.00,154.89,-22.50,OPEN,0
671050.863,0,1,0,1.000,1.000,1.000,-90.00,154.65,-22.50,OPEN,0
671050.867,0,1,0,1.000,1.000,1.000,-90.00,154.42,-22.50,OPEN,1
671050.872,0,1,0,1.000,1.000,1.000,-90.00,154.15,-22.50,OPEN,0
671050.876,0,1,0,1.000,1.000,1.000,-90.00,153.91,-22.50,OPEN,0
671050.880,0,1,0,1.000,1.000,1.000,-90.00,153.67,-22.50,OPEN,0
671050.884,0,1,0,1.000,1.000,1.000,-90.00,153.39,-22.50,OPEN,0
671050.889,0,1,0,1.000,1.000,1.000,-90.00,153.09,-22.50,OPEN,0
671050.894,0,1,0,1.000,1.000,1.000,-90.00,152.80,-22.50,OPEN,0
671050.899,0,1,0,1.000,1.000,1.000,-90.00,152.50,-22.50,OPEN,0
671050.905,0,1,0,1.000,1.000,1.000,-90.00,152.14,-22.50,OPEN,0
671050.910,0,1,0,1.000,1.000,1.000,-90.00,151.88,-22.50,OPEN,0
671050.914,0,1,0,1.000,1.000,1.000,-90.00,151.64,-22.50,OPEN,0
671050.917,0,1,0,1.000,1.000,1.000,-90.00,151.40,-22.50,OPEN,0
671050.923,0,1,0,1.000,1.000,1.000,-90.00,151.07,-22.50,OPEN,0
671050.927,0,1,0,1.000,1.000,1.000,-90.00,150.83,-22.50,OPEN,0
671050.931,0,1,0,1.000,1.000,1.000,-90.00,150.58,-22.50,OPEN,0
671050.935,0,1,0,1.000,1.000,1.000,-90.00,150.33,-22.50,OPEN,0
671050.940,0,1,0,1.000,1.000,1.000,-90.00,150.08,-22.50,OPEN,0
671050.944,0,1,0,1.000,1.000,1.000,-90.00,149.83,-22.50,OPEN,0
671050.948,0,1,0,1.000,1.000,1.000,-90.00,149.60,-22.50,OPEN,0
671050.952,0,1,0,1.000,1.000,1.000,-90.00,149.33,-22.50,OPEN,0
671050.956,0,1,0,1.000,1.000,1.000,-90.00,149.07,-22.50,OPEN,0
671050.960,0,1,0,1.000,1.000,1.000,-90.00,148.82,-22.50,OPEN,0
671050.964,0,1,0,1.000,1.000,1.000,-90.00,148.59,-22.50,OPEN,0
671050.969,0,1,0,1.000,1.000,1.000,-90.00,148.34,-22.50,OPEN,1
671050.973,0,1,0,1.000,1.000,1.000,-90.00,148.08,-22.50,OPEN,0
671050.978,0,1,0,1.000,1.000,1.000,-90.00,147.80,-22.50,OPEN,0
671050.982,0,1,0,1.000,1.000,1.000,-90.00,147.52,-22.50,OPEN,0
671050.989,0,1,0,1.000,1.000,1.000,-90.00,147.10,-22.50,OPEN,0
671050.996,0,1,0,1.000,1.000,1.000,-90.00,146.70,-22.50,OPEN,0
671051.001,0,1,0,1.000,1.000,1.000,-90.00,146.41,-22.50,OPEN,0
671051.006,0,1,0,1.000,1.000,1.000,-90.00,146.10,-22.50,OPEN,0
671051.010,0,1,0,1.000,1.000,1.000,-90.00,145.84,-22.50,OPEN,0
671051.014,0,1,0,1.000,1.000,1.000,-90.00,145.60,-22.50,OPEN,0
671051.018,0,1,0,1.000,1.000,1.000,-90.00,145.35,-22.50,OPEN,0
671051.027,0,1,0,1.000,1.000,1.000,-90.00,144.83,-22.50,OPEN,0
671051.031,0,1,0,1.000,1.000,1.000,-90.00,144.58,-22.50,OPEN,0
671051.035,0,1,0,1.000,1.000,1.000,-90.00,144.34,-22.50,OPEN,0
671051.039,0,1,0,1.000,1.000,1.000,-90.00,144.09,-22.50,OPEN,0
671051.043,0,1,0,1.000,1.000,1.000,-90.00,143.84,-22.50,OPEN,0
671051.047,0,1,0,1.000,1.000,1.000,-90.00,143.61,-22.50,OPEN,0
671051.051,0,1,0,1.000,1.000,1.000,-90.00,143.39,-22.50,OPEN,0
671051.055,0,1,0,1.000,1.000,1.000,-90.00,143.14,-22.50,OPEN,0
671051.059,0,1,0,1.000,1.000,1.000,-90.00,142.91,-22.50,OPEN,0
671051.065,0,1,0,1.000,1.000,1.000,-90.00,142.57,-22.50,OPEN,0
671051.073,0,1,0,1.000,1.000,1.000,-90.00,142.07,-22.50,OPEN,1
671051.081,0,1,0,1.000,1.000,1.000,-90.00,141.57,-22.50,OPEN,0
671051.089,0,1,0,1.000,1.000,1.000,-90.00,141.10,-22.50,OPEN,0
671051.096,0,1,0,1.000,1.000,1.000,-90.00,140.68,-22.50,OPEN,0
671051.104,0,1,0,1.000,1.000,1.000,-90.00,140.20,-22.50,OPEN,0
671051.109,0,1,0,1.000,1.000,1.000,-90.00,139.89,-22.50,OPEN,0
671051.114,0,1,0,1.000,1.000,1.000,-90.00,139.61,-22.50,OPEN,0
671051.119,0,1,0,1.000,1.000,1.000,-90.00,139.33,-22.50,OPEN,0
671051.123,0,1,0,1.000,1.000,1.000,-90.00,139.09,-22.50,OPEN,0
671051.127,0,1,0,1.000,1.000,1.000,-90.00,138.85,-22.50,OPEN,0
671051.131,0,1,0,1.000,1.000,1.000,-90.00,138.59,-22.50,OPEN,0
671051.136,0,1,0,1.000,1.000,1.000,-90.00,138.31,-22.50,OPEN,0
671051.144,0,1,0,1.000,1.000,1.000,-90.00,137.84,-22.50,OPEN,0
671051.148,0,1,0,1.000,1.000,1.000,-90.00,137.60,-22.50,OPEN,0
671051.153,0,1,0,1.000,1.000,1.000,-90.00,137.30,-22.50,OPEN,0
671051.156,0,1,0,1.000,1.000,1.000,-90.00,137.07,-22.50,OPEN,0
671051.160,0,0,0,1.000,1.000,1.000,-90.00,137.30,-22.50,OPEN,0
671051.164,0,0,0,1.000,1.000,1.000,-90.00,137.54,-22.50,OPEN,0
671051.169,0,0,0,1.000,1.000,1.000,-90.00,137.82,-22.50,OPEN,0
671051.178,0,0,0,1.000,1.000,1.000,-90.00,138.37,-22.50,OPEN,1
671051.188,0,0,0,1.000,1.000,1.000,-90.00,138.93,-22.50,OPEN,0
671051.195,0,0,0,1.000,1.000,1.000,-90.00,139.37,-22.50,OPEN,0
671051.206,0,0,0,1.000,1.000,1.000,-90.00,140.04,-22.50,OPEN,0
671051.211,0,0,0,1.000,1.000,1.000,-90.00,140.36,-22.50,OPEN,0
671051.217,0,0,0,1.000,1.000,1.000,-90.00,140.68,-22.50,OPEN,0
671051.221,0,0,0,1.000,1.000,1.000,-90.00,140.94,-22.50,OPEN,0
671051.225,0,0,0,1.000,1.000,1.000,-90.00,141.18,-22.50,OPEN,0
671051.229,0,0,0,1.000,1.000,1.000,-90.00,141.41,-22.50,OPEN,0
671051.232,0,0,0,1.000,1.000,1.000,-90.00,141.63,-22.50,OPEN,0
671051.237,0,0,0,1.000,1.000,1.000,-90.00,141.88,-22.50,OPEN,0
671051.241,0,0,0,1.000,1.000,1.000,-90.00,142.16,-22.50,OPEN,0
671051.246,0,0,0,1.000,1.000,1.000,-90.00,142.45,-22.50,OPEN,0
671051.251,0,0,0,1.000,1.000,1.000,-90.00,142.75,-22.50,OPEN,0
671051.257,0,0,0,1.000,1.000,1.000,-90.00,143.09,-22.50,OPEN,0
671051.263,0,0,0,1.000,1.000,1.000,-90.00,143.43,-22.50,OPEN,0
671051.267,0,0,0,1.000,1.000,1.000,-90.00,143.71,-22.50,OPEN,0
671051.272,0,0,0,1.000,1.000,1.000,-90.00,143.99,-22.50,OPEN,0
671051.277,0,0,0,1.000,1.000,1.000,-90.00,144.27,-22.50,OPEN,0
671051.281,0,0,0,1.000,1.000,1.000,-90.00,144.55,-22.50,OPEN,1
671051.285,0,0,0,1.000,1.000,1.000,-90.00,144.80,-22.50,OPEN,0
671051.289,0,0,0,1.000,1.000,1.000,-90.00,145.05,-22.50,OPEN,0
671051.294,0,0,0,1.000,1.000,1.000,-90.00,145.30,-22.50,OPEN,0
671051.298,0,0,0,1.000,1.000,1.000,-90.00,145.58,-22.50,OPEN,0
671051.303,0,0,0,1.000,1.000,1.000,-90.00,145.86,-22.50,OPEN,0
671051.310,0,0,0,1.000,1.000,1.000,-90.00,146.27,-22.50,OPEN,0
671051.314,0,0,0,1.000,1.000,1.000,-90.00,146.50,-22.50,OPEN,0
671051.317,0,0,0,1.000,1.000,1.000,-90.00,146.73,-22.50,OPEN,0
671051.322,0,0,0,1.000,1.000,1.000,-90.00,146.98,-22.50,OPEN,0
671051.329,0,0,0,1.000,1.000,1.000,-90.00,147.41,-22.50,OPEN,0
671051.333,0,0,0,1.000,1.000,1.000,-90.00,147.65,-22.50,OPEN,0
671051.337,0,0,0,1.000,1.000,1.000,-90.00,147.90,-22.50,OPEN,0
671051.343,0,0,0,1.000,1.000,1.000,-90.00,148.25,-22.50,OPEN,0
671051.347,0,0,0,1.000,1.000,1.000,-90.00,148.49,-22.50,OPEN,0
671051.351,0,0,0,1.000,1.000,1.000,-90.00,148.71,-22.50,OPEN,0
671051.355,0,0,0,1.000,1.000,0.999,-90.00,148.96,-22.50,OPEN,0
671051.359,0,0,0,0.999,1.000,0.990,-90.00,149.23,-22.50,OPEN,0
671051.363,0,0,0,0.999,1.000,0.947,-90.00,149.49,-22.50,OPEN,0
671051.369,0,0,0,1.000,0.997,0.840,-90.00,149.79,-22.50,OPEN,0
671051.374,0,0,0,1.000,0.948,0.678,-90.00,150.09,-22.50,OPEN,0
671051.378,0,0,0,1.000,0.754,0.528,-90.00,150.36,-22.50,OPEN,0
671051.382,0,0,0,1.000,0.996,0.731,-90.00,150.62,-22.50,OPEN,1
671051.387,0,0,0,0.999,1.000,0.896,-90.00,150.87,-22.50,OPEN,0
671051.391,0,0,0,0.992,1.000,0.980,-90.00,151.13,-22.50,OPEN,0
671051.395,0,0,0,0.981,1.000,0.996,-90.00,151.39,-22.50,OPEN,0
671051.399,0,0,0,0.999,1.000,0.999,-90.00,151.63,-22.50,OPEN,0
671051.404,0,0,0,1.000,1.000,1.000,-90.00,151.90,-22.50,OPEN,0
671051.408,0,0,0,1.000,1.000,1.000,-90.00,152.17,-22.50,OPEN,0
671051.412,0,0,0,1.000,1.000,1.000,-90.00,152.42,-22.50,OPEN,0
671051.416,0,0,0,1.000,1.000,1.000,-90.00,152.66,-22.50,OPEN,0
671051.421,0,0,0,1.000,1.000,1.000,-90.00,152.93,-22.50,OPEN,0
671051.425,0,0,0,1.000,1.000,1.000,-90.00,153.19,-22.50,OPEN,0
671051.430,0,0,0,1.000,1.000,1.000,-90.00,153.48,-22.50,OPEN,0
671051.435,0,0,0,1.000,1.000,1.000,-90.00,153.77,-22.50,OPEN,0
671051.440,0,0,0,1.000,1.000,1.000,-90.00,154.05,-22.50,OPEN,0
671051.444,0,0,0,0.999,1.000,1.000,-90.00,154.33,-22.50,OPEN,0
671051.450,0,0,0,0.995,1.000,1.000,-90.00,154.65,-22.50,OPEN,0
671051.457,0,0,0,0.990,1.000,1.000,-90.00,155.10,-22.50,OPEN,0
671051.461,0,0,0,1.000,0.969,1.000,-90.00,155.36,-22.50,OPEN,0
671051.466,0,0,0,1.000,0.991,1.000,-90.00,155.61,-22.50,OPEN,0
671051.469,0,0,0,1.000,1.000,1.000,-90.00,155.84,-22.50,OPEN,0
671051.473,0,0,0,1.000,1.000,1.000,-90.00,156.07,-22.50,OPEN,0
671051.478,0,0,0,1.000,1.000,1.000,-90.00,156.38,-22.50,OPEN,0
671051.484,0,0,0,1.000,1.000,1.000,-90.00,156.75,-22.50,OPEN,1
671051.491,0,0,0,1.000,1.000,1.000,-90.00,157.15,-22.50,OPEN,0
671051.497,0,0,0,1.000,1.000,1.000,-90.00,157.50,-22.50,OPEN,0
671051.502,0,0,0,1.000,1.000,1.000,-90.00,157.80,-22.50,OPEN,0
671051.507,0,0,0,1.000,1.000,1.000,-90.00,158.10,-22.50,OPEN,0
671051.512,0,0,0,1.000,1.000,1.000,-90.00,158.40,-22.50,OPEN,0
671051.517,0,0,0,1.000,1.000,1.000,-90.00,158.69,-22.50,OPEN,0
671051.522,0,0,0,1.000,1.000,1.000,-90.00,158.98,-22.50,OPEN,0
671051.527,0,0,0,1.000,1.000,1.000,-90.00,159.31,-22.50,OPEN,0
671051.532,0,0,0,1.000,1.000,1.000,-90.00,159.59,-22.50,OPEN,0
671051.536,0,0,0,1.000,1.000,1.000,-90.00,159.87,-22.50,OPEN,0
671051.541,0,0,0,1.000,1.000,1.000,-90.00,160.15,-22.50,OPEN,0
671051.546,0,0,0,1.000,1.000,1.000,-90.00,160.41,-22.50,OPEN,0
671051.550,0,0,0,1.000,1.000,1.000,-90.00,160.66,-22.50,OPEN,0
671051.554,0,0,0,1.000,1.000,1.000,-90.00,160.93,-22.50,OPEN,0
671051.558,0,0,0,1.000,0.999,1.000,-90.00,161.18,-22.50,OPEN,0
671051.563,0,0,0,1.000,0.997,1.000,-90.00,161.45,-22.50,OPEN,0
671051.567,0,0,0,1.000,0.996,1.000,-90.00,161.71,-22.50,OPEN,0
671051.572,0,0,0,1.000,0.998,1.000,-90.00,161.98,-22.50,OPEN,0
671051.576,0,0,0,1.000,0.999,1.000,-90.00,162.22,-22.50,OPEN,0
671051.580,0,0,0,1.000,1.000,1.000,-90.00,162.46,-22.50,OPEN,0
671051.584,0,0,0,1.000,1.000,1.000,-90.00,162.71,-22.50,OPEN,0
671051.588,0,0,0,1.000,1.000,1.000,-90.00,162.95,-22.50,OPEN,1
671051.592,0,0,0,1.000,1.000,1.000,-90.00,163.19,-22.50,OPEN,0
671051.597,0,0,0,1.000,1.000,1.000,-90.00,163.52,-22.50,OPEN,0
671051.605,0,0,0,1.000,1.000,1.000,-90.00,163.96,-22.50,OPEN,0
671051.611,0,0,0,1.000,1.000,1.000,-90.00,164.35,-22.50,OPEN,0
671051.617,0,0,0,1.000,1.000,1.000,-90.00,164.68,-22.50,OPEN,0
671051.622,0,0,0,1.000,1.000,1.000,-90.00,165.01,-22.50,OPEN,0
671051.627,0,0,0,1.000,1.000,1.000,-90.00,165.31,-22.50,OPEN,0
671051.632,0,0,0,1.000,1.000,1.000,-90.00,165.59,-22.50,OPEN,0
671051.637,0,0,0,1.000,1.000,1.000,-90.00,165.87,-22.50,OPEN,0
671051.645,0,0,0,1.000,1.000,1.000,-90.00,166.40,-22.50,OPEN,0
671051.649,0,0,0,1.000,1.000,1.000,-90.00,166.64,-22.50,OPEN,0
671051.654,0,0,0,1.000,1.000,1.000,-90.00,166.90,-22.50,OPEN,0
671051.658,0,0,0,1.000,1.000,1.000,-90.00,167.14,-22.50,OPEN,0
671051.662,0,0,0,1.000,1.000,1.000,-90.00,167.38,-22.50,OPEN,0
671051.666,0,0,0,1.000,1.000,1.000,-90.00,167.61,-22.50,OPEN,0
671051.669,0,0,0,1.000,1.000,1.000,-90.00,167.85,-22.50,OPEN,0
671051.673,0,0,0,1.000,1.000,1.000,-90.00,168.08,-22.50,OPEN,0
671051.677,0,0,0,1.000,1.000,1.000,-90.00,168.33,-22.50,OPEN,0
671051.681,0,0,0,1.000,1.000,1.000,-90.00,168.57,-22.50,OPEN,0
671051.685,0,0,0,1.000,1.000,1.000,-90.00,168.80,-22.50,OPEN,0
671051.689,0,0,0,1.000,1.000,1.000,-90.00,169.03,-22.50,OPEN,1
671051.693,0,0,0,1.000,1.000,1.000,-90.00,169.25,-22.50,OPEN,0
671051.700,0,0,0,1.000,1.000,1.000,-90.00,169.67,-22.50,OPEN,0
671051.707,0,0,0,1.000,1.000,1.000,-90.00,170.10,-22.50,OPEN,0
671051.714,0,0,0,1.000,1.000,1.000,-90.00,170.50,-22.50,OPEN,0
671051.721,0,0,0,1.000,1.000,1.000,-90.00,170.92,-22.50,OPEN,0
671051.726,0,0,0,1.000,1.000,1.000,-90.00,171.24,-22.50,OPEN,0
671051.731,0,0,0,1.000,1.000,1.000,-90.00,171.55,-22.50,OPEN,0
671051.736,0,0,0,1.000,1.000,1.000,-90.00,171.86,-22.50,OPEN,0
671051.742,0,0,0,1.000,1.000,1.000,-90.00,172.19,-22.50,OPEN,0
671051.747,0,0,0,1.000,1.000,1.000,-90.00,172.49,-22.50,OPEN,0
671051.752,0,0,0,1.000,1.000,1.000,-90.00,172.80,-22.50,OPEN,0
671051.757,0,0,0,1.000,1.000,1.000,-90.00,173.09,-22.50,OPEN,0
671051.762,0,0,0,1.000,1.000,1.000,-90.00,173.39,-22.50,OPEN,0
671051.766,0,0,0,1.000,1.000,1.000,-90.00,173.63,-22.50,OPEN,0
671051.770,0,0,0,1.000,1.000,1.000,-90.00,173.89,-22.50,OPEN,0
671051.775,0,0,0,1.000,1.000,1.000,-90.00,174.15,-22.50,OPEN,0
671051.779,0,0,0,1.000,1.000,1.000,-90.00,174.39,-22.50,OPEN,0
671051.783,0,0,0,1.000,1.000,1.000,-90.00,174.64,-22.50,OPEN,0
671051.787,0,0,0,1.000,1.000,1.000,-90.00,174.88,-22.50,OPEN,0
671051.791,0,0,0,1.000,1.000,1.000,-90.00,175.15,-22.50,OPEN,1
671051.795,0,0,0,1.000,1.000,1.000,-90.00,175.38,-22.50,OPEN,0
671051.799,0,0,0,1.000,1.000,1.000,-90.00,175.61,-22.50,OPEN,0
671051.804,0,0,0,1.000,1.000,1.000,-90.00,175.93,-22.50,OPEN,0
671051.808,0,0,0,1.000,1.000,1.000,-90.00,176.15,-22.50,OPEN,0
671051.812,0,0,0,1.000,1.000,1.000,-90.00,176.38,-22.50,OPEN,0
671051.816,0,0,0,1.000,1.000,1.000,-90.00,176.61,-22.50,OPEN,0
671051.819,0,0,0,1.000,1.000,1.000,-90.00,176.84,-22.50,OPEN,0
671051.823,0,0,0,1.000,1.000,1.000,-90.00,177.06,-22.50,OPEN,0
671051.827,0,0,0,1.000,1.000,1.000,-90.00,177.29,-22.50,OPEN,0
671051.831,0,0,0,1.000,1.000,1.000,-90.00,177.51,-22.50,OPEN,0
671051.835,0,0,0,1.000,1.000,1.000,-90.00,177.77,-22.50,OPEN,0
671051.839,0,0,0,1.000,1.000,1.000,-90.00,178.04,-22.50,OPEN,0
671051.846,0,0,0,1.000,1.000,1.000,-90.00,178.41,-22.50,OPEN,0
671051.853,0,0,0,1.000,1.000,1.000,-90.00,178.84,-22.50,OPEN,0
671051.859,0,0,0,1.000,1.000,1.000,-90.00,179.23,-22.50,OPEN,0
671051.865,0,0,0,1.000,1.000,1.000,-90.00,179.59,-22.50,OPEN,0
671051.871,0,0,0,1.000,1.000,1.000,-90.00,179.97,-22.50,OPEN,0
671051.877,0,0,0,1.000,1.000,1.000,-90.00,180.00,-22.50,OPEN,0
671051.881,0,0,0,1.000,1.000,1.000,-90.00,180.00,-22.50,OPEN,0
671051.886,0,0,0,1.000,1.000,1.000,-90.00,180.00,-22.50,OPEN,0
671051.890,0,0,0,1.000,1.000,1.000,-90.00,180.00,-22.50,OPEN,0
671051.894,0,0,0,1.000,1.000,1.000,-90.00,180.00,-22.50,OPEN,1
671051.898,0,0,0,1.000,0.999,1.000,-90.00,180.00,-22.50,OPEN,0
671051.903,0,0,0,1.000,0.995,1.000,-90.00,180.00,-22.50,OPEN,0
671051.907,0,0,0,1.000,0.752,1.000,-90.00,180.00,-22.50,OPEN,0
671051.911,0,0,0,1.000,1.000,1.000,-90.00,180.00,-22.50,OPEN,0
671051.915,0,0,1,1.000,1.000,1.000,-89.77,180.00,-22.50,OPEN,0
671051.919,0,0,1,0.998,1.000,1.000,-89.53,180.00,-22.50,OPEN,0
671051.923,0,0,1,0.993,1.000,1.000,-89.28,180.00,-22.50,OPEN,0
671051.927,0,0,1,0.993,1.000,1.000,-89.00,180.00,-22.50,OPEN,0
671051.932,0,0,1,0.988,1.000,1.000,-88.74,180.00,-22.50,OPEN,0
671051.937,0,0,1,0.978,1.000,1.000,-88.43,180.00,-22.50,OPEN,0
671051.942,0,0,1,0.966,1.000,1.000,-88.12,180.00,-22.50,OPEN,0
671051.947,0,0,1,0.957,1.000,1.000,-87.83,180.00,-22.50,OPEN,0
671051.952,0,0,1,0.943,1.000,0.999,-87.50,180.00,-22.50,OPEN,0
671051.957,0,0,1,0.899,1.000,0.996,-87.20,180.00,-22.50,OPEN,0
671051.962,0,0,1,0.800,1.000,0.937,-86.91,180.00,-22.50,OPEN,0
671051.967,0,0,1,0.792,1.000,0.895,-86.61,180.00,-22.50,OPEN,0
671051.973,0,0,1,0.995,1.000,0.698,-86.28,180.00,-22.50,OPEN,0
671051.977,0,0,1,1.000,1.000,0.554,-86.01,180.00,-22.50,OPEN,0
671051.981,0,0,1,1.000,1.000,0.947,-85.76,180.00,-22.50,OPEN,0
671051.986,0,0,1,1.000,1.000,0.993,-85.48,180.00,-22.50,OPEN,0
671051.990,0,0,1,1.000,1.000,1.000,-85.21,180.00,-22.50,OPEN,0
671051.994,0,0,1,1.000,1.000,1.000,-84.98,180.00,-22.50,OPEN,1
671051.998,0,0,1,1.000,1.000,1.000,-84.75,180.00,-22.50,OPEN,0
671052.002,0,0,1,1.000,1.000,1.000,-84.52,180.00,-22.50,OPEN,0
671052.007,0,0,1,1.000,1.000,1.000,-84.25,180.00,-22.50,OPEN,0
671052.010,0,0,1,1.000,0.999,1.000,-84.02,180.00,-22.50,OPEN,0
671052.015,0,0,1,1.000,0.993,1.000,-83.76,180.00,-22.50,OPEN,0
671052.020,0,0,1,1.000,0.939,1.000,-83.46,180.00,-22.50,OPEN,0
671052.024,0,0,1,0.996,0.544,1.000,-83.18,180.00,-22.50,OPEN,0
671052.029,0,0,1,0.997,0.868,1.000,-82.92,180.00,-22.50,OPEN,0
671052.036,0,0,1,1.000,0.805,1.000,-82.46,180.00,-22.50,OPEN,0
671052.040,0,0,1,1.000,0.776,1.000,-82.23,180.00,-22.50,OPEN,0
671052.046,0,0,1,1.000,0.828,1.000,-81.91,180.00,-22.50,OPEN,0
671052.051,0,0,1,1.000,0.966,1.000,-81.61,180.00,-22.50,OPEN,0
671052.055,0,0,1,1.000,0.990,1.000,-81.33,180.00,-22.50,OPEN,0
671052.060,0,0,1,1.000,0.997,1.000,-81.02,180.00,-22.50,OPEN,0
671052.065,0,0,1,1.000,0.999,1.000,-80.76,180.00,-22.50,OPEN,0
671052.069,0,0,1,1.000,1.000,1.000,-80.48,180.00,-22.50,OPEN,0
671052.075,0,0,1,1.000,1.000,1.000,-80.15,180.00,-22.50,OPEN,0
671052.079,0,0,1,1.000,1.000,1.000,-79.91,180.00,-22.50,OPEN,0
671052.083,0,0,1,1.000,1.000,1.000,-79.66,180.00,-22.50,OPEN,0
671052.088,0,0,1,1.000,1.000,1.000,-79.38,180.00,-22.50,OPEN,0
671052.092,0,0,1,1.000,1.000,1.000,-79.12,180.00,-22.50,OPEN,0
671052.096,0,0,1,1.000,1.000,1.000,-78.85,180.00,-22.50,OPEN,1
671052.101,0,0,1,1.000,1.000,1.000,-78.56,180.00,-22.50,OPEN,0
671052.112,0,0,1,1.000,1.000,1.000,-77.93,180.00,-22.50,OPEN,0
671052.116,0,0,1,1.000,1.000,1.000,-77.68,180.00,-22.50,OPEN,0
671052.120,0,0,1,1.000,1.000,1.000,-77.42,180.00,-22.50,OPEN,0
671052.124,0,0,1,1.000,1.000,1.000,-77.19,180.00,-22.50,OPEN,0
671052.128,0,0,1,1.000,1.000,1.000,-76.95,180.00,-22.50,OPEN,0
671052.132,0,0,1,1.000,1.000,1.000,-76.72,180.00,-22.50,OPEN,0
671052.137,0,0,1,1.000,1.000,1.000,-76.44,180.00,-22.50,OPEN,0
671052.145,0,0,1,1.000,1.000,1.000,-75.94,180.00,-22.50,OPEN,0
671052.149,0,0,1,1.000,1.000,1.000,-75.69,180.00,-22.50,OPEN,0
671052.153,0,0,1,1.000,1.000,1.000,-75.46,180.00,-22.50,OPEN,0
671052.157,0,0,1,1.000,1.000,1.000,-75.21,180.00,-22.50,OPEN,0
671052.161,0,0,1,1.000,1.000,1.000,-74.97,180.00,-22.50,OPEN,0
671052.166,0,0,1,1.000,1.000,1.000,-74.69,180.00,-22.50,OPEN,0
671052.172,0,0,1,1.000,1.000,1.000,-74.34,180.00,-22.50,OPEN,0
671052.177,0,0,1,1.000,1.000,1.000,-74.05,180.00,-22.50,OPEN,0
671052.181,0,0,1,1.000,1.000,1.000,-73.79,180.00,-22.50,OPEN,0
671052.186,0,0,1,1.000,1.000,1.000,-73.48,180.00,-22.50,OPEN,0
671052.192,0,0,1,1.000,1.000,1.000,-73.11,180.00,-22.50,OPEN,0
671052.197,0,0,1,1.000,1.000,1.000,-72.84,180.00,-22.50,OPEN,1
671052.201,0,0,1,1.000,1.000,1.000,-72.56,180.00,-22.50,OPEN,0
671052.206,0,0,1,1.000,1.000,1.000,-72.30,180.00,-22.50,OPEN,0
671052.210,0,0,1,1.000,1.000,1.000,-72.04,180.00,-22.50,OPEN,0
671052.215,0,0,1,1.000,1.000,1.000,-71.76,180.00,-22.50,OPEN,0
671052.220,0,0,1,1.000,1.000,1.000,-71.44,180.00,-22.50,OPEN,0
671052.225,0,0,1,1.000,1.000,1.000,-71.13,180.00,-22.50,OPEN,0
671052.230,0,0,1,1.000,1.000,1.000,-70.83,180.00,-22.50,OPEN,0
671052.237,0,0,1,1.000,1.000,1.000,-70.43,180.00,-22.50,OPEN,0
671052.242,0,0,1,1.000,1.000,1.000,-70.14,180.00,-22.50,OPEN,0
671052.246,0,0,1,1.000,1.000,1.000,-69.88,180.00,-22.50,OPEN,0
671052.250,0,0,1,1.000,1.000,1.000,-69.64,180.00,-22.50,OPEN,0
671052.254,0,0,1,1.000,1.000,1.000,-69.38,180.00,-22.50,OPEN,0
671052.258,0,0,1,1.000,1.000,1.000,-69.14,180.00,-22.50,OPEN,0
671052.263,0,0,1,1.000,1.000,1.000,-68.87,180.00,-22.50,OPEN,0
671052.268,0,0,1,1.000,1.000,1.000,-68.57,180.00,-22.50,OPEN,0
671052.277,0,0,1,1.000,1.000,1.000,-68.02,180.00,-22.50,OPEN,0
671052.281,0,0,1,1.000,1.000,1.000,-67.76,180.00,-22.50,OPEN,0
671052.285,0,0,1,1.000,1.000,1.000,-67.52,180.00,-22.50,OPEN,0
671052.290,0,0,1,1.000,1.000,1.000,-67.26,180.00,-22.50,OPEN,0
671052.294,0,0,1,1.000,1.000,1.000,-67.03,180.00,-22.50,OPEN,0
671052.298,0,0,1,1.000,1.000,1.000,-66.79,180.00,-22.50,OPEN,1
671052.303,0,0,1,1.000,1.000,1.000,-66.49,180.00,-22.50,OPEN,0
671052.308,0,0,1,1.000,1.000,1.000,-66.15,180.00,-22.50,OPEN,0
671052.313,0,0,1,1.000,1.000,1.000,-65.85,180.00,-22.50,OPEN,0
671052.318,0,0,1,1.000,1.000,1.000,-65.57,180.00,-22.50,OPEN,0
671052.323,0,0,1,1.000,1.000,1.000,-65.27,180.00,-22.50,OPEN,0
671052.331,0,0,1,1.000,1.000,1.000,-64.81,180.00,-22.50,OPEN,0
671052.338,0,0,1,1.000,1.000,1.000,-64.35,180.00,-22.50,OPEN,0
671052.343,0,0,1,1.000,1.000,1.000,-64.08,180.00,-22.50,OPEN,0
671052.347,0,0,1,1.000,1.000,1.000,-63.84,180.00,-22.50,OPEN,0
671052.351,0,0,1,1.000,1.000,1.000,-63.60,180.00,-22.50,OPEN,0
671052.356,0,0,1,1.000,1.000,1.000,-63.27,180.00,-22.50,OPEN,0
671052.360,0,0,1,1.000,1.000,1.000,-63.04,180.00,-22.50,OPEN,0
671052.364,0,0,1,1.000,1.000,1.000,-62.80,180.00,-22.50,OPEN,0
671052.368,0,0,1,1.000,1.000,1.000,-62.56,180.00,-22.50,OPEN,0
671052.372,0,0,1,1.000,1.000,1.000,-62.33,180.00,-22.50,OPEN,0
671052.376,0,0,1,1.000,1.000,1.000,-62.09,180.00,-22.50,OPEN,0
671052.380,0,0,1,1.000,1.000,1.000,-61.86,180.00,-22.50,OPEN,0
671052.384,0,0,1,1.000,1.000,1.000,-61.63,180.00,-22.50,OPEN,0
671052.388,0,0,1,1.000,1.000,1.000,-61.34,180.00,-22.50,OPEN,0
671052.396,0,0,1,1.000,1.000,1.000,-60.90,180.00,-22.50,OPEN,0
671052.404,0,0,1,1.000,1.000,1.000,-60.40,180.00,-22.50,OPEN,1
671052.411,0,0,1,1.000,1.000,1.000,-59.97,180.00,-22.50,OPEN,0
671052.418,0,0,1,1.000,1.000,1.000,-59.56,180.00,-22.50,OPEN,0
671052.425,0,0,1,1.000,1.000,1.000,-59.14,180.00,-22.50,OPEN,0
671052.431,0,0,1,1.000,1.000,1.000,-58.81,180.00,-22.50,OPEN,0
671052.438,0,0,1,1.000,1.000,1.000,-58.39,180.00,-22.50,OPEN,0
671052.443,0,0,1,1.000,1.000,1.000,-58.09,180.00,-22.50,OPEN,0
671052.447,0,0,1,1.000,1.000,1.000,-57.83,180.00,-22.50,OPEN,0
671052.451,0,0,1,1.000,1.000,1.000,-57.58,180.00,-22.50,OPEN,0
671052.459,0,0,1,1.000,1.000,1.000,-57.08,180.00,-22.50,OPEN,0
671052.463,0,0,1,1.000,1.000,1.000,-56.84,180.00,-22.50,OPEN,0
671052.470,0,0,1,1.000,1.000,1.000,-56.43,180.00,-22.50,OPEN,0
671052.474,0,0,1,1.000,1.000,1.000,-56.19,180.00,-22.50,OPEN,0
671052.478,0,0,1,1.000,1.000,1.000,-55.95,180.00,-22.50,OPEN,0
671052.482,0,0,1,1.000,1.000,1.000,-55.70,180.00,-22.50,OPEN,0
671052.486,0,0,1,1.000,1.000,1.000,-55.49,180.00,-22.50,OPEN,0
671052.491,0,0,1,1.000,1.000,1.000,-55.21,180.00,-22.50,OPEN,0
671052.504,0,0,1,1.000,1.000,1.000,-54.41,180.00,-22.50,OPEN,0
671052.513,0,0,0,1.000,1.000,1.000,-54.97,180.00,-22.50,OPEN,1
671052.527,0,0,0,1.000,1.000,1.000,-55.80,180.00,-22.50,OPEN,0
671052.534,0,0,0,1.000,1.000,1.000,-56.21,180.00,-22.50,OPEN,0
671052.539,0,0,0,1.000,1.000,1.000,-56.52,180.00,-22.50,OPEN,0
671052.543,0,0,0,1.000,1.000,1.000,-56.79,180.00,-22.50,OPEN,0
671052.548,0,0,0,1.000,1.000,1.000,-57.06,180.00,-22.50,OPEN,0
671052.552,0,0,0,1.000,1.000,1.000,-57.32,180.00,-22.50,OPEN,0
671052.561,0,0,0,1.000,1.000,1.000,-57.82,180.00,-22.50,OPEN,0
671052.566,0,0,0,1.000,1.000,1.000,-58.12,180.00,-22.50,OPEN,0
671052.570,0,0,0,1.000,1.000,1.000,-58.39,180.00,-22.50,OPEN,0
671052.574,0,0,0,1.000,1.000,1.000,-58.60,180.00,-22.50,OPEN,0
671052.578,0,0,0,1.000,1.000,1.000,-58.86,180.00,-22.50,OPEN,0
671052.583,0,0,0,1.000,1.000,1.000,-59.18,180.00,-22.50,OPEN,0
671052.590,0,0,0,1.000,1.000,1.000,-59.61,180.00,-22.50,OPEN,0
671052.596,0,0,0,1.000,1.000,1.000,-59.96,180.00,-22.50,OPEN,0
671052.602,0,0,0,1.000,1.000,1.000,-60.31,180.00,-22.50,OPEN,0
671052.609,0,0,0,1.000,1.000,1.000,-60.71,180.00,-22.50,OPEN,0
671052.614,0,0,0,1.000,1.000,1.000,-61.01,180.00,-22.50,OPEN,1
671052.623,0,0,0,1.000,1.000,1.000,-61.59,180.00,-22.50,OPEN,0
671052.628,0,0,0,1.000,1.000,1.000,-61.89,180.00,-22.50,OPEN,0
671052.636,0,0,0,1.000,1.000,1.000,-62.37,180.00,-22.50,OPEN,0
671052.642,0,0,0,1.000,1.000,1.000,-62.70,180.00,-22.50,OPEN,0
671052.646,0,0,0,1.000,1.000,1.000,-62.95,180.00,-22.50,OPEN,0
671052.650,0,0,0,1.000,1.000,1.000,-63.20,180.00,-22.50,OPEN,0
671052.655,0,0,0,1.000,1.000,1.000,-63.48,180.00,-22.50,OPEN,0
671052.662,0,0,0,1.000,1.000,1.000,-63.93,180.00,-22.50,OPEN,0
671052.667,0,0,0,1.000,1.000,1.000,-64.20,180.00,-22.50,OPEN,0
671052.672,0,0,0,1.000,1.000,1.000,-64.53,180.00,-22.50,OPEN,0
671052.680,0,0,0,1.000,1.000,1.000,-65.01,180.00,-22.50,OPEN,0
671052.688,0,0,0,1.000,1.000,1.000,-65.47,180.00,-22.50,OPEN,0
671052.696,0,0,0,0.999,1.000,1.000,-65.94,180.00,-22.50,OPEN,0
671052.703,0,0,0,1.000,1.000,1.000,-66.38,180.00,-22.50,OPEN,0
671052.710,0,0,0,0.999,0.985,1.000,-66.76,180.00,-22.50,OPEN,0
671052.718,0,0,0,1.000,0.997,0.988,-67.24,180.00,-22.50,OPEN,1
671052.723,0,0,0,0.997,1.000,0.522,-67.56,180.00,-22.50,OPEN,0
671052.731,0,0,0,0.988,1.000,0.916,-68.02,180.00,-22.50,OPEN,0
671052.737,0,0,0,0.988,1.000,0.968,-68.42,180.00,-22.50,OPEN,0
671052.741,0,0,0,0.984,1.000,0.974,-68.66,180.00,-22.50,OPEN,0
671052.746,0,0,0,0.990,1.000,0.974,-68.95,180.00,-22.50,OPEN,0
671052.753,0,0,0,0.993,1.000,0.976,-69.38,180.00,-22.50,OPEN,0
671052.760,0,0,0,0.994,1.000,0.962,-69.79,180.00,-22.50,OPEN,0
671052.768,0,0,0,0.996,1.000,0.967,-70.27,180.00,-22.50,OPEN,0
671052.777,0,0,0,1.000,1.000,0.968,-70.82,180.00,-22.50,OPEN,0
671052.785,0,0,0,1.000,1.000,0.942,-71.28,180.00,-22.50,OPEN,0
671052.792,0,0,0,1.000,1.000,0.924,-71.72,180.00,-22.50,OPEN,0
671052.799,0,0,0,1.000,1.000,0.954,-72.12,180.00,-22.50,OPEN,0
671052.805,0,0,0,1.000,1.000,0.982,-72.50,180.00,-22.50,OPEN,0
671052.812,0,0,0,1.000,1.000,0.996,-72.91,180.00,-22.50,OPEN,0
671052.818,0,0,0,1.000,1.000,1.000,-73.24,180.00,-22.50,OPEN,0
671052.827,0,0,0,1.000,1.000,1.000,-73.80,180.00,-22.50,OPEN,1
671052.831,0,0,0,1.000,1.000,1.000,-74.07,180.00,-22.50,OPEN,0
671052.836,0,0,0,1.000,1.000,1.000,-74.32,180.00,-22.50,OPEN,0
671052.840,0,0,0,1.000,1.000,1.000,-74.57,180.00,-22.50,OPEN,0
671052.846,0,0,0,1.000,1.000,1.000,-74.95,180.00,-22.50,OPEN,0
671052.850,0,0,0,1.000,1.000,1.000,-75.19,180.00,-22.50,OPEN,0
671052.854,0,0,0,1.000,0.999,1.000,-75.43,180.00,-22.50,OPEN,0
671052.858,0,0,0,1.000,0.991,1.000,-75.67,180.00,-22.50,OPEN,0
671052.862,0,0,0,1.000,0.974,1.000,-75.91,180.00,-22.50,OPEN,0
671052.866,0,0,0,1.000,0.942,1.000,-76.13,180.00,-22.50,OPEN,0
671052.870,0,0,0,1.000,0.925,1.000,-76.37,180.00,-22.50,OPEN,0
671052.878,0,0,0,1.000,0.880,1.000,-76.84,180.00,-22.50,OPEN,0
671052.881,0,0,0,1.000,0.821,1.000,-77.08,180.00,-22.50,OPEN,0
671052.887,0,0,0,1.000,0.805,1.000,-77.39,180.00,-22.50,OPEN,0
671052.891,0,0,0,0.999,0.958,1.000,-77.65,180.00,-22.50,OPEN,0
671052.895,0,0,0,0.999,0.995,1.000,-77.90,180.00,-22.50,OPEN,0
671052.900,0,0,0,0.999,0.999,1.000,-78.17,180.00,-22.50,OPEN,0
671052.905,0,0,0,0.998,1.000,1.000,-78.51,180.00,-22.50,OPEN,0
671052.910,0,0,0,1.000,1.000,1.000,-78.76,180.00,-22.50,OPEN,0
671052.913,0,0,0,1.000,1.000,1.000,-78.99,180.00,-22.50,OPEN,0
671052.917,0,0,0,1.000,1.000,1.000,-79.22,180.00,-22.50,OPEN,0
671052.921,0,0,0,1.000,1.000,1.000,-79.46,180.00,-22.50,OPEN,0
671052.925,0,0,0,1.000,1.000,1.000,-79.71,180.00,-22.50,OPEN,0
671052.931,0,0,0,1.000,1.000,1.000,-80.03,180.00,-22.50,OPEN,1
671052.937,0,0,0,1.000,1.000,1.000,-80.38,180.00,-22.50,OPEN,0
671052.942,0,0,0,1.000,1.000,1.000,-80.70,180.00,-22.50,OPEN,0
671052.949,0,0,0,1.000,1.000,1.000,-81.15,180.00,-22.50,OPEN,0
671052.955,0,0,0,1.000,1.000,1.000,-81.48,180.00,-22.50,OPEN,0
671052.959,0,0,0,1.000,1.000,1.000,-81.74,180.00,-22.50,OPEN,0
671052.963,0,0,0,1.000,1.000,1.000,-81.98,180.00,-22.50,OPEN,0
671052.967,0,0,0,1.000,1.000,1.000,-82.22,180.00,-22.50,OPEN,0
671052.971,0,0,0,1.000,1.000,1.000,-82.45,180.00,-22.50,OPEN,0
671052.975,0,0,0,1.000,1.000,1.000,-82.69,180.00,-22.50,OPEN,0
671052.979,0,0,0,1.000,1.000,1.000,-82.93,180.00,-22.50,OPEN,0
671052.983,0,0,0,1.000,1.000,1.000,-83.17,180.00,-22.50,OPEN,0
671052.988,0,0,0,1.000,1.000,1.000,-83.46,180.00,-22.50,OPEN,0
671052.992,0,0,0,1.000,1.000,1.000,-83.68,180.00,-22.50,OPEN,0
671052.995,0,0,0,1.000,1.000,1.000,-83.91,180.00,-22.50,OPEN,0
671053.002,0,0,0,1.000,1.000,1.000,-84.30,180.00,-22.50,OPEN,0
671053.006,0,0,0,1.000,1.000,1.000,-84.57,180.00,-22.50,OPEN,0
671053.011,0,0,0,1.000,1.000,1.000,-84.82,180.00,-22.50,OPEN,0
671053.015,0,0,0,1.000,1.000,1.000,-85.07,180.00,-22.50,OPEN,0
671053.018,0,0,0,1.000,1.000,1.000,-85.30,180.00,-22.50,OPEN,0
671053.025,0,0,0,1.000,1.000,1.000,-85.71,180.00,-22.50,OPEN,0
671053.038,0,0,0,1.000,1.000,1.000,-86.44,180.00,-22.50,OPEN,1
671053.056,0,0,0,1.000,1.000,1.000,-87.52,180.00,-22.50,OPEN,0
671053.063,0,0,0,1.000,1.000,1.000,-87.96,180.00,-22.50,OPEN,0
671053.069,0,0,0,1.000,1.000,1.000,-88.33,180.00,-22.50,OPEN,0
671053.078,0,0,0,1.000,1.000,1.000,-88.89,180.00,-22.50,OPEN,0
671053.083,0,0,0,1.000,1.000,1.000,-89.15,180.00,-22.50,OPEN,0
671053.087,0,0,0,1.000,1.000,1.000,-89.41,180.00,-22.50,OPEN,0
671053.091,0,0,0,1.000,1.000,1.000,-89.63,180.00,-22.50,OPEN,0
671053.098,0,0,0,1.000,1.000,1.000,-90.00,180.00,-22.50,OPEN,0
671053.104,0,0,0,1.000,1.000,1.000,-90.00,180.00,-22.50,OPEN,0
671053.107,0,0,0,1.000,1.000,1.000,-90.00,180.00,-22.50,OPEN,0
671053.111,0,0,0,1.000,1.000,1.000,-90.00,180.00,-22.50,OPEN,0
671053.115,0,0,0,1.000,1.000,1.000,-90.00,180.00,-22.50,OPEN,0
671053.119,0,0,0,1.000,1.000,1.000,-90.00,180.00,-22.50,OPEN,0
671053.124,0,0,0,1.000,1.000,1.000,-90.00,180.00,-22.50,OPEN,0
671053.127,0,0,0,1.000,1.000,1.000,-90.00,180.00,-22.50,OPEN,0
671053.131,0,0,0,1.000,1.000,1.000,-90.00,180.00,-22.50,OPEN,0
671053.135,0,0,0,1.000,1.000,1.000,-90.00,180.00,-22.50,OPEN,0
671053.139,0,0,0,1.000,1.000,1.000,-90.00,180.00,-22.50,OPEN,1
671053.150,0,0,0,1.000,1.000,1.000,-90.00,180.00,-22.50,OPEN,0
671053.156,0,0,0,1.000,1.000,1.000,-90.00,180.00,-22.50,OPEN,0
671053.162,0,0,0,1.000,1.000,1.000,-90.00,180.00,-22.50,OPEN,0
671053.167,0,0,0,1.000,1.000,1.000,-90.00,180.00,-22.50,OPEN,0
671053.173,0,0,0,1.000,1.000,1.000,-90.00,180.00,-22.50,OPEN,0
671053.177,0,0,0,1.000,1.000,1.000,-90.00,180.00,-22.50,OPEN,0
671053.182,0,0,0,1.000,1.000,1.000,-90.00,180.00,-22.50,OPEN,0
671053.187,0,0,0,1.000,1.000,1.000,-90.00,180.00,-22.50,OPEN,0
671053.191,0,0,0,1.000,1.000,1.000,-90.00,180.00,-22.50,OPEN,0
671053.196,0,0,0,1.000,1.000,1.000,-90.00,180.00,-22.50,OPEN,0
671053.200,0,0,0,1.000,1.000,1.000,-90.00,180.00,-22.50,OPEN,0
671053.205,0,0,0,1.000,1.000,1.000,-90.00,180.00,-22.50,OPEN,0
671053.209,0,0,0,1.000,1.000,1.000,-90.00,180.00,-22.50,OPEN,0
671053.213,0,0,0,1.000,1.000,1.000,-90.00,180.00,-22.50,OPEN,0
671053.217,0,0,0,1.000,1.000,1.000,-90.00,180.00,-22.50,OPEN,0
671053.221,0,0,0,1.000,1.000,1.000,-90.00,180.00,-22.50,OPEN,0
671053.225,0,0,0,1.000,1.000,1.000,-90.00,180.00,-22.50,OPEN,0
671053.229,0,0,0,1.000,1.000,1.000,-90.00,180.00,-22.50,OPEN,0
671053.233,0,0,0,1.000,1.000,1.000,-90.00,180.00,-22.50,OPEN,0
671053.237,0,0,0,1.000,1.000,1.000,-90.00,180.00,-22.50,OPEN,0
671053.241,0,0,0,1.000,1.000,1.000,-90.00,180.00,-22.50,OPEN,0
671053.245,0,0,0,1.000,1.000,1.000,-90.00,180.00,-22.50,OPEN,0
671053.249,0,0,0,1.000,1.000,1.000,-90.00,180.00,-22.50,OPEN,0
671053.253,0,0,0,1.000,1.000,1.000,-90.00,180.00,-22.50,OPEN,0
671053.258,0,0,0,1.000,1.000,1.000,-90.00,180.00,-22.50,OPEN,0
671053.267,0,1,0,1.000,1.000,1.000,-90.00,179.50,-22.50,OPEN,1
671053.272,0,1,0,1.000,1.000,1.000,-90.00,179.20,-22.50,OPEN,0
671053.276,0,1,0,1.000,1.000,1.000,-90.00,178.96,-22.50,OPEN,0
671053.280,0,1,1,1.000,1.000,1.000,-89.76,178.72,-22.50,OPEN,0
671053.284,0,1,1,1.000,1.000,1.000,-89.52,178.47,-22.50,OPEN,0
671053.288,0,1,1,1.000,1.000,1.000,-89.24,178.20,-22.50,OPEN,0
671053.294,0,1,1,1.000,1.000,1.000,-88.93,177.89,-22.50,OPEN,0
671053.298,0,1,1,1.000,1.000,1.000,-88.65,177.61,-22.50,OPEN,0
671053.306,0,1,1,1.000,1.000,1.000,-88.18,177.14,-22.50,OPEN,0
671053.311,0,1,1,1.000,1.000,1.000,-87.87,176.82,-22.50,OPEN,0
671053.316,0,1,1,1.000,1.000,1.000,-87.61,176.57,-22.50,OPEN,0
671053.320,0,1,1,1.000,1.000,1.000,-87.32,176.28,-22.50,OPEN,0
671053.324,0,1,1,1.000,1.000,1.000,-87.08,176.04,-22.50,OPEN,0
671053.328,0,1,1,1.000,1.000,1.000,-86.84,175.80,-22.50,OPEN,0
671053.332,0,1,1,1.000,1.000,1.000,-86.60,175.56,-22.50,OPEN,0
671053.337,0,1,1,1.000,1.000,1.000,-86.33,175.29,-22.50,OPEN,0
671053.341,0,1,1,1.000,1.000,1.000,-86.11,175.06,-22.50,OPEN,0
671053.345,0,1,1,1.000,1.000,1.000,-85.85,174.81,-22.50,OPEN,0
671053.349,0,1,1,1.000,1.000,1.000,-85.63,174.59,-22.50,OPEN,0
671053.352,0,1,1,1.000,1.000,1.000,-85.40,174.36,-22.50,OPEN,0
671053.356,0,1,1,1.000,1.000,1.000,-85.19,174.14,-22.50,OPEN,0
671053.364,0,1,1,1.000,1.000,1.000,-84.72,173.67,-22.50,OPEN,0
671053.368,0,1,1,1.000,1.000,1.000,-84.48,173.43,-22.50,OPEN,1
671053.375,0,1,1,1.000,0.999,1.000,-84.04,172.99,-22.50,OPEN,0
671053.379,0,1,1,1.000,0.995,1.000,-83.79,172.75,-22.50,OPEN,0
671053.383,0,1,1,1.000,0.975,1.000,-83.57,172.52,-22.50,OPEN,0
671053.387,0,1,1,1.000,0.857,0.999,-83.32,172.28,-22.50,OPEN,0
671053.391,0,1,1,1.000,0.741,0.998,-83.09,172.05,-22.50,OPEN,0
671053.395,0,1,1,1.000,0.639,0.992,-82.86,171.82,-22.50,OPEN,0
671053.399,0,1,1,0.999,0.914,0.968,-82.63,171.58,-22.50,OPEN,0
671053.403,0,1,1,0.999,0.976,0.877,-82.39,171.35,-22.50,OPEN,0
671053.407,0,1,1,0.999,0.990,0.686,-82.14,171.10,-22.50,OPEN,0
671053.412,0,1,1,0.998,0.996,0.554,-81.86,170.81,-22.50,OPEN,0
671053.416,0,1,1,0.999,0.992,0.619,-81.62,170.57,-22.50,OPEN,0
671053.420,0,1,1,0.999,0.995,0.804,-81.35,170.31,-22.50,OPEN,0
671053.428,0,1,1,0.999,1.000,0.941,-80.84,169.80,-22.50,OPEN,0
671053.433,0,1,1,1.000,1.000,0.996,-80.60,169.55,-22.50,OPEN,0
671053.437,0,1,1,1.000,1.000,0.996,-80.35,169.30,-22.50,OPEN,0
671053.444,0,1,1,1.000,1.000,0.999,-79.89,168.84,-22.50,OPEN,0
671053.448,0,1,1,1.000,1.000,0.999,-79.66,168.62,-22.50,OPEN,0
671053.454,0,1,1,1.000,1.000,0.998,-79.33,168.28,-22.50,OPEN,0
671053.457,0,1,1,1.000,1.000,0.998,-79.11,168.06,-22.50,OPEN,0
671053.461,0,1,1,1.000,1.000,0.995,-78.87,167.83,-22.50,OPEN,0
671053.466,0,1,1,1.000,1.000,0.988,-78.61,167.57,-22.50,OPEN,0
671053.469,0,1,1,1.000,1.000,0.554,-78.39,167.34,-22.50,OPEN,1
671053.474,0,1,1,1.000,0.998,0.952,-78.12,167.08,-22.50,OPEN,0
671053.479,0,1,1,1.000,0.994,0.942,-77.78,166.74,-22.50,OPEN,0
671053.486,0,1,1,1.000,0.986,0.952,-77.41,166.37,-22.50,OPEN,0
671053.495,0,1,1,1.000,0.926,0.977,-76.83,165.78,-22.50,OPEN,0
671053.500,0,1,1,1.000,0.668,0.982,-76.55,165.51,-22.50,OPEN,0
671053.505,0,1,1,1.000,0.990,0.994,-76.27,165.23,-22.50,OPEN,0
671053.509,0,1,1,1.000,1.000,0.994,-75.98,164.94,-22.50,OPEN,0
671053.515,0,1,1,1.000,1.000,0.995,-75.65,164.61,-22.50,OPEN,0
671053.520,0,1,1,1.000,1.000,0.979,-75.35,164.31,-22.50,OPEN,0
671053.527,0,1,1,1.000,1.000,0.965,-74.90,163.86,-22.50,OPEN,0
671053.531,0,1,1,1.000,1.000,0.951,-74.68,163.64,-22.50,OPEN,0
671053.535,0,1,1,1.000,0.998,0.823,-74.46,163.42,-22.50,OPEN,0
671053.539,0,1,1,1.000,0.991,0.642,-74.23,163.19,-22.50,OPEN,0
671053.542,0,1,1,1.000,0.915,0.775,-74.00,162.96,-22.50,OPEN,0
671053.547,0,1,1,1.000,0.762,0.873,-73.70,162.66,-22.50,OPEN,0
671053.551,0,1,1,1.000,0.502,0.918,-73.49,162.45,-22.50,OPEN,0
671053.555,0,1,1,1.000,0.719,0.947,-73.24,162.19,-22.50,OPEN,0
671053.565,0,1,1,1.000,0.862,0.970,-72.65,161.61,-22.50,OPEN,0
671053.570,0,1,1,1.000,0.974,0.993,-72.37,161.33,-22.50,OPEN,1
671053.574,0,1,1,1.000,0.996,0.998,-72.12,161.08,-22.50,OPEN,0
671053.578,0,1,1,1.000,0.999,0.999,-71.89,160.85,-22.50,OPEN,0
671053.582,0,1,1,1.000,1.000,1.000,-71.64,160.60,-22.50,OPEN,0
671053.586,0,1,1,1.000,1.000,1.000,-71.39,160.35,-22.50,OPEN,0
671053.591,0,1,1,1.000,1.000,1.000,-71.11,160.07,-22.50,OPEN,0
671053.594,0,1,1,1.000,1.000,1.000,-70.88,159.84,-22.50,OPEN,0
671053.598,0,1,1,1.000,1.000,1.000,-70.65,159.61,-22.50,OPEN,0
671053.602,0,1,1,1.000,1.000,1.000,-70.40,159.36,-22.50,OPEN,0
671053.612,0,1,1,1.000,1.000,1.000,-69.84,158.80,-22.50,OPEN,0
671053.616,0,1,1,1.000,1.000,1.000,-69.61,158.56,-22.50,OPEN,0
671053.621,0,1,1,1.000,1.000,1.000,-69.31,158.26,-22.50,OPEN,0
671053.625,0,1,1,1.000,1.000,1.000,-69.07,158.03,-22.50,OPEN,0
671053.629,0,1,1,1.000,1.000,1.000,-68.83,157.79,-22.50,OPEN,0
671053.633,0,1,1,1.000,1.000,1.000,-68.60,157.55,-22.50,OPEN,0
671053.637,0,1,1,1.000,1.000,1.000,-68.36,157.31,-22.50,OPEN,0
671053.641,0,1,1,1.000,1.000,1.000,-68.09,157.05,-22.50,OPEN,0
671053.645,0,1,1,1.000,1.000,1.000,-67.86,156.82,-22.50,OPEN,0
671053.650,0,1,1,1.000,1.000,1.000,-67.58,156.54,-22.50,OPEN,0
671053.659,0,1,1,1.000,1.000,1.000,-67.01,155.96,-22.50,OPEN,0
671053.664,0,1,1,1.000,1.000,1.000,-66.70,155.66,-22.50,OPEN,0
671053.669,0,1,1,1.000,1.000,1.000,-66.39,155.34,-22.50,OPEN,0
671053.674,0,1,1,1.000,1.000,1.000,-66.10,155.06,-22.50,OPEN,1
671053.678,0,1,1,1.000,1.000,1.000,-65.84,154.80,-22.50,OPEN,0
671053.683,0,1,1,1.000,1.000,1.000,-65.59,154.55,-22.50,OPEN,0
671053.689,0,1,1,1.000,1.000,1.000,-65.22,154.17,-22.50,OPEN,0
671053.693,0,1,1,1.000,1.000,1.000,-64.97,153.93,-22.50,OPEN,0
671053.697,0,1,1,1.000,1.000,1.000,-64.73,153.68,-22.50,OPEN,0
671053.702,0,1,1,1.000,1.000,1.000,-64.40,153.36,-22.50,OPEN,0
671053.707,0,1,1,1.000,1.000,1.000,-64.16,153.11,-22.50,OPEN,0
671053.711,0,1,1,1.000,1.000,1.000,-63.90,152.86,-22.50,OPEN,0
671053.714,0,1,1,1.000,1.000,1.000,-63.68,152.64,-22.50,OPEN,0
671053.721,0,1,1,1.000,1.000,1.000,-63.29,152.24,-22.50,OPEN,0
671053.725,0,1,1,1.000,1.000,1.000,-63.05,152.01,-22.50,OPEN,0
671053.730,0,1,1,1.000,1.000,1.000,-62.78,151.73,-22.50,OPEN,0
671053.734,0,1,1,1.000,1.000,1.000,-62.52,151.48,-22.50,OPEN,0
671053.738,0,1,1,1.000,1.000,1.000,-62.28,151.24,-22.50,OPEN,0
671053.741,0,1,1,1.000,1.000,1.000,-62.07,151.03,-22.50,OPEN,0
671053.745,0,1,1,1.000,1.000,1.000,-61.84,150.80,-22.50,OPEN,0
671053.751,0,1,1,1.000,1.000,1.000,-61.48,150.44,-22.50,OPEN,0
671053.761,0,1,1,1.000,1.000,1.000,-60.91,149.87,-22.50,OPEN,0
671053.765,0,1,1,1.000,1.000,1.000,-60.68,149.63,-22.50,OPEN,0
671053.768,0,1,1,1.000,1.000,1.000,-60.45,149.40,-22.50,OPEN,0
671053.772,0,1,1,1.000,1.000,1.000,-60.24,149.20,-22.50,OPEN,0
671053.776,0,1,1,1.000,1.000,1.000,-59.99,148.94,-22.50,OPEN,1
671053.781,0,1,1,1.000,1.000,1.000,-59.69,148.65,-22.50,OPEN,0
671053.787,0,1,1,1.000,1.000,1.000,-59.35,148.31,-22.50,OPEN,0
671053.792,0,1,1,1.000,1.000,1.000,-59.06,148.01,-22.50,OPEN,0
671053.797,0,1,1,1.000,1.000,1.000,-58.76,147.71,-22.50,OPEN,0
671053.801,0,1,1,1.000,1.000,1.000,-58.49,147.45,-22.50,OPEN,0
671053.811,0,1,1,1.000,1.000,1.000,-57.90,146.86,-22.50,OPEN,0
671053.815,0,1,1,1.000,1.000,1.000,-57.67,146.63,-22.50,OPEN,0
671053.818,0,1,1,1.000,1.000,1.000,-57.44,146.40,-22.50,OPEN,0
671053.823,0,1,1,1.000,1.000,1.000,-57.15,146.11,-22.50,OPEN,0
671053.827,0,1,1,1.000,1.000,1.000,-56.91,145.87,-22.50,OPEN,0
671053.831,0,1,1,1.000,1.000,1.000,-56.67,145.62,-22.50,OPEN,0
671053.840,0,1,1,1.000,1.000,1.000,-56.13,145.09,-22.50,OPEN,0
671053.845,0,1,1,1.000,1.000,1.000,-55.86,144.82,-22.50,OPEN,0
671053.850,0,1,1,1.000,1.000,1.000,-55.56,144.52,-22.50,OPEN,0
671053.854,0,1,1,1.000,1.000,1.000,-55.30,144.26,-22.50,OPEN,0
671053.859,0,1,1,1.000,1.000,1.000,-55.03,143.99,-22.50,OPEN,0
671053.862,0,1,1,1.000,1.000,1.000,-54.81,143.76,-22.50,OPEN,0
671053.866,0,1,1,1.000,1.000,1.000,-54.59,143.54,-22.50,OPEN,0
671053.870,0,1,1,1.000,1.000,1.000,-54.33,143.29,-22.50,OPEN,0
671053.874,0,1,1,1.000,1.000,1.000,-54.10,143.06,-22.50,OPEN,0
671053.878,0,1,1,1.000,1.000,1.000,-53.87,142.82,-22.50,OPEN,1
671053.882,0,1,1,1.000,1.000,1.000,-53.63,142.58,-22.50,OPEN,0
671053.886,0,1,1,1.000,1.000,1.000,-53.39,142.35,-22.50,OPEN,0
671053.890,0,1,1,1.000,1.000,1.000,-53.16,142.12,-22.50,OPEN,0
671053.894,0,1,1,1.000,1.000,1.000,-52.92,141.88,-22.50,OPEN,0
671053.898,0,1,1,1.000,1.000,1.000,-52.68,141.64,-22.50,OPEN,0
671053.902,0,1,1,1.000,1.000,1.000,-52.44,141.40,-22.50,OPEN,0
671053.906,0,1,1,1.000,1.000,1.000,-52.21,141.17,-22.50,OPEN,0
671053.909,0,1,1,1.000,1.000,1.000,-51.99,140.95,-22.50,OPEN,0
671053.913,0,1,1,1.000,1.000,1.000,-51.77,140.73,-22.50,OPEN,0
671053.917,0,1,1,1.000,1.000,1.000,-51.52,140.48,-22.50,OPEN,0
671053.923,0,1,1,1.000,1.000,1.000,-51.18,140.14,-22.50,OPEN,0
671053.927,0,1,1,1.000,1.000,1.000,-50.94,139.89,-22.50,OPEN,0
671053.931,0,1,1,1.000,1.000,1.000,-50.70,139.66,-22.50,OPEN,0
671053.939,0,0,1,1.000,1.000,1.000,-50.19,140.17,-22.50,OPEN,0
671053.943,0,0,1,1.000,1.000,1.000,-49.96,140.40,-22.50,OPEN,0
671053.947,0,0,1,1.000,1.000,1.000,-49.71,140.64,-22.50,OPEN,0
671053.953,0,0,1,1.000,1.000,1.000,-49.39,140.97,-22.50,OPEN,0
671053.957,0,0,0,1.000,1.000,1.000,-49.63,141.21,-22.50,OPEN,0
671053.961,0,0,0,1.000,1.000,1.000,-49.87,141.45,-22.50,OPEN,0
671053.964,0,0,0,1.000,1.000,1.000,-50.08,141.66,-22.50,OPEN,0
671053.968,0,0,0,1.000,1.000,1.000,-50.32,141.90,-22.50,OPEN,0
671053.973,0,0,0,1.000,1.000,1.000,-50.59,142.16,-22.50,OPEN,0
671053.981,0,0,0,1.000,1.000,1.000,-51.06,142.64,-22.50,OPEN,1
671053.985,0,0,0,1.000,1.000,1.000,-51.33,142.91,-22.50,OPEN,0
671053.989,0,0,0,1.000,1.000,1.000,-51.57,143.15,-22.50,OPEN,0
671053.993,0,0,0,1.000,1.000,1.000,-51.82,143.40,-22.50,OPEN,0
671053.998,0,0,0,1.000,1.000,1.000,-52.11,143.69,-22.50,OPEN,0
671054.002,0,0,0,1.000,1.000,1.000,-52.37,143.95,-22.50,OPEN,0
671054.006,0,0,0,1.000,1.000,1.000,-52.61,144.19,-22.50,OPEN,0
671054.010,0,0,0,1.000,1.000,1.000,-52.84,144.42,-22.50,OPEN,0
671054.018,0,0,0,1.000,1.000,1.000,-53.28,144.86,-22.50,OPEN,0
671054.026,0,0,0,1.000,1.000,1.000,-53.78,145.36,-22.50,OPEN,0
671054.031,0,0,0,0.990,1.000,1.000,-54.09,145.67,-22.50,OPEN,0
671054.036,0,0,0,0.988,1.000,1.000,-54.40,145.98,-22.50,OPEN,0
671054.040,0,0,0,0.564,1.000,1.000,-54.65,146.23,-22.50,OPEN,0
671054.046,0,0,0,0.740,1.000,1.000,-54.97,146.55,-22.50,OPEN,0
671054.050,0,0,0,0.765,1.000,1.000,-55.24,146.82,-22.50,OPEN,0
671054.057,0,0,0,0.770,1.000,1.000,-55.62,147.20,-22.50,OPEN,0
671054.062,0,0,0,0.847,1.000,1.000,-55.94,147.52,-22.50,OPEN,0
671054.066,0,0,0,0.610,1.000,1.000,-56.19,147.77,-22.50,OPEN,0
671054.070,0,0,0,0.876,1.000,1.000,-56.45,148.03,-22.50,OPEN,0
671054.075,0,0,0,0.973,1.000,1.000,-56.75,148.33,-22.50,OPEN,0
671054.080,0,0,0,0.999,1.000,1.000,-57.02,148.60,-22.50,OPEN,0
671054.084,3,0,0,1.000,1.000,1.000,-57.26,148.84,-22.50,CLOSED,1
671054.088,3,0,0,1.000,1.000,1.000,-57.52,149.09,-22.50,CLOSED,0
671054.092,3,0,0,1.000,1.000,1.000,-57.76,149.34,-22.50,CLOSED,0
671054.096,3,0,0,1.000,1.000,1.000,-57.98,149.56,-22.50,CLOSED,0
671054.100,3,0,0,1.000,1.000,1.000,-58.22,149.80,-22.50,CLOSED,0
671054.105,3,0,0,1.000,1.000,1.000,-58.52,150.10,-22.50,CLOSED,0
671054.109,3,0,0,1.000,0.993,1.000,-58.75,150.33,-22.50,CLOSED,0
671054.112,3,0,0,1.000,1.000,1.000,-58.97,150.55,-22.50,CLOSED,0
671054.116,3,0,0,1.000,1.000,1.000,-59.19,150.77,-22.50,CLOSED,0
671054.120,3,0,0,1.000,1.000,1.000,-59.42,150.99,-22.50,CLOSED,0
671054.127,3,0,0,1.000,1.000,1.000,-59.87,151.45,-22.50,CLOSED,0
671054.131,3,0,0,1.000,1.000,1.000,-60.08,151.66,-22.50,CLOSED,0
671054.137,3,0,0,1.000,1.000,1.000,-60.42,152.00,-22.50,CLOSED,0
671054.140,3,0,0,1.000,1.000,1.000,-60.65,152.23,-22.50,CLOSED,0
671054.144,3,0,0,1.000,1.000,1.000,-60.86,152.44,-22.50,CLOSED,0
671054.151,3,0,0,1.000,1.000,1.000,-61.30,152.88,-22.50,CLOSED,0
671054.156,3,0,0,1.000,1.000,1.000,-61.56,153.14,-22.50,CLOSED,0
671054.164,3,0,0,1.000,1.000,1.000,-62.04,153.62,-22.50,CLOSED,0
671054.183,3,0,0,1.000,1.000,1.000,-63.19,154.77,-22.50,CLOSED,0
671054.203,3,0,0,1.000,1.000,1.000,-64.38,155.96,-22.50,CLOSED,1
671054.215,3,0,0,1.000,1.000,1.000,-65.12,156.70,-22.50,CLOSED,0
671054.226,3,0,0,1.000,1.000,1.000,-65.76,157.34,-22.50,CLOSED,0
671054.240,3,0,0,1.000,1.000,1.000,-66.60,158.18,-22.50,CLOSED,0
671054.247,3,0,0,1.000,1.000,1.000,-67.02,158.60,-22.50,CLOSED,0
671054.258,3,0,0,1.000,1.000,1.000,-67.69,159.27,-22.50,CLOSED,0
671054.267,3,0,0,1.000,1.000,1.000,-68.25,159.83,-22.50,CLOSED,0
671054.275,3,0,0,1.000,1.000,1.000,-68.74,160.32,-22.50,CLOSED,0
671054.283,3,0,0,1.000,1.000,1.000,-69.22,160.80,-22.50,CLOSED,0
671054.291,3,0,0,1.000,1.000,1.000,-69.70,161.27,-22.50,CLOSED,0
671054.299,3,0,0,1.000,1.000,1.000,-70.17,161.75,-22.50,CLOSED,0
671054.307,3,0,0,1.000,1.000,1.000,-70.64,162.22,-22.50,CLOSED,1
671054.315,3,0,0,1.000,1.000,1.000,-71.10,162.68,-22.50,CLOSED,0
671054.323,3,0,0,1.000,1.000,1.000,-71.59,163.17,-22.50,CLOSED,0
671054.330,3,0,0,1.000,1.000,1.000,-72.05,163.63,-22.50,CLOSED,0
671054.338,3,0,0,1.000,1.000,1.000,-72.53,164.11,-22.50,CLOSED,0
671054.347,3,0,0,1.000,1.000,1.000,-73.02,164.60,-22.50,CLOSED,0
671054.355,3,0,0,1.000,1.000,1.000,-73.50,165.08,-22.50,CLOSED,0
671054.361,3,0,0,1.000,1.000,1.000,-73.86,165.44,-22.50,CLOSED,0
671054.365,3,0,0,1.000,1.000,1.000,-74.14,165.72,-22.50,CLOSED,0
671054.373,3,0,0,1.000,1.000,1.000,-74.63,166.20,-22.50,CLOSED,0
671054.383,3,0,0,1.000,1.000,1.000,-75.19,166.77,-22.50,CLOSED,0
671054.387,3,0,0,1.000,1.000,1.000,-75.46,167.04,-22.50,CLOSED,0
671054.391,3,0,0,1.000,1.000,1.000,-75.68,167.26,-22.50,CLOSED,0
671054.395,3,0,0,1.000,1.000,1.000,-75.91,167.49,-22.50,CLOSED,0
671054.399,3,0,0,1.000,1.000,1.000,-76.16,167.74,-22.50,CLOSED,0
671054.403,3,0,0,1.000,1.000,1.000,-76.40,167.98,-22.50,CLOSED,0
671054.407,3,0,0,1.000,1.000,1.000,-76.65,168.23,-22.50,CLOSED,1
671054.411,3,0,0,1.000,1.000,1.000,-76.91,168.49,-22.50,CLOSED,0
671054.415,3,0,0,1.000,1.000,1.000,-77.15,168.73,-22.50,CLOSED,0
671054.420,3,0,0,1.000,1.000,1.000,-77.42,169.00,-22.50,CLOSED,0
671054.428,3,0,0,1.000,1.000,1.000,-77.89,169.46,-22.50,CLOSED,0
671054.431,3,0,0,1.000,1.000,1.000,-78.11,169.69,-22.50,CLOSED,0
671054.436,3,0,0,1.000,1.000,1.000,-78.37,169.95,-22.50,CLOSED,0
671054.440,3,0,0,1.000,1.000,1.000,-78.62,170.20,-22.50,CLOSED,0
671054.444,3,0,0,1.000,1.000,1.000,-78.84,170.42,-22.50,CLOSED,0
671054.447,3,0,0,1.000,1.000,1.000,-79.07,170.65,-22.50,CLOSED,0
671054.454,3,0,0,1.000,1.000,1.000,-79.46,171.04,-22.50,CLOSED,0
671054.459,3,0,0,1.000,1.000,1.000,-79.74,171.32,-22.50,CLOSED,0
671054.464,3,0,0,1.000,1.000,1.000,-80.04,171.62,-22.50,CLOSED,0
671054.470,3,0,0,1.000,1.000,1.000,-80.42,171.99,-22.50,CLOSED,0
671054.476,3,0,0,1.000,1.000,1.000,-80.76,172.34,-22.50,CLOSED,0
671054.481,3,0,0,1.000,1.000,1.000,-81.08,172.66,-22.50,CLOSED,0
671054.490,3,0,0,1.000,1.000,1.000,-81.62,173.19,-22.50,CLOSED,0
671054.495,3,0,0,1.000,1.000,1.000,-81.94,173.52,-22.50,CLOSED,0
671054.500,3,0,0,1.000,1.000,1.000,-82.24,173.82,-22.50,CLOSED,0
671054.506,3,0,0,1.000,1.000,1.000,-82.57,174.15,-22.50,CLOSED,0
671054.510,3,0,0,1.000,1.000,1.000,-82.81,174.39,-22.50,CLOSED,1
671054.514,3,0,0,1.000,1.000,1.000,-83.05,174.63,-22.50,CLOSED,0
671054.518,3,0,0,1.000,1.000,1.000,-83.29,174.86,-22.50,CLOSED,0
671054.528,3,0,0,1.000,1.000,1.000,-83.92,175.50,-22.50,CLOSED,0
671054.532,3,0,0,1.000,1.000,1.000,-84.18,175.75,-22.50,CLOSED,0
671054.538,3,0,0,1.000,1.000,1.000,-84.50,176.08,-22.50,CLOSED,0
671054.542,3,0,0,1.000,1.000,1.000,-84.74,176.32,-22.50,CLOSED,0
671054.546,3,0,0,1.000,1.000,1.000,-84.98,176.56,-22.50,CLOSED,0
671054.550,3,0,0,1.000,1.000,1.000,-85.20,176.78,-22.50,CLOSED,0
671054.554,3,0,0,1.000,1.000,1.000,-85.47,177.05,-22.50,CLOSED,0
671054.558,3,0,0,1.000,1.000,1.000,-85.68,177.26,-22.50,CLOSED,0
671054.561,3,0,0,1.000,1.000,1.000,-85.91,177.49,-22.50,CLOSED,0
671054.571,3,0,0,1.000,1.000,1.000,-86.48,178.06,-22.50,CLOSED,0
671054.575,3,0,0,1.000,1.000,1.000,-86.74,178.32,-22.50,CLOSED,0
671054.579,3,0,0,1.000,1.000,1.000,-87.00,178.57,-22.50,CLOSED,0
671054.584,3,0,0,1.000,1.000,1.000,-87.25,178.83,-22.50,CLOSED,0
671054.589,3,0,0,1.000,1.000,1.000,-87.56,179.14,-22.50,CLOSED,0
671054.596,3,0,0,1.000,1.000,1.000,-87.96,179.54,-22.50,CLOSED,0
671054.600,3,0,0,1.000,1.000,1.000,-88.22,179.80,-22.50,CLOSED,0
671054.605,3,0,0,1.000,1.000,1.000,-88.55,180.00,-22.50,CLOSED,0
671054.611,3,0,0,1.000,1.000,1.000,-88.87,180.00,-22.50,CLOSED,1
671054.615,3,0,0,1.000,1.000,1.000,-89.15,180.00,-22.50,CLOSED,0
671054.621,3,0,0,1.000,1.000,1.000,-89.47,180.00,-22.50,CLOSED,0
671054.627,3,0,0,1.000,1.000,1.000,-89.82,180.00,-22.50,CLOSED,0
671054.631,3,0,0,1.000,1.000,1.000,-90.00,180.00,-22.50,CLOSED,0
671054.635,3,0,0,1.000,1.000,1.000,-90.00,180.00,-22.50,CLOSED,0
671054.639,3,0,0,1.000,1.000,1.000,-90.00,180.00,-22.50,CLOSED,0
671054.643,3,0,0,1.000,1.000,1.000,-90.00,180.00,-22.50,CLOSED,0
671054.647,3,1,0,1.000,1.000,1.000,-90.00,179.76,-22.50,CLOSED,0
671054.651,3,1,0,1.000,1.000,1.000,-90.00,179.53,-22.50,CLOSED,0
671054.657,3,1,0,1.000,1.000,1.000,-90.00,179.17,-22.50,CLOSED,0
671054.661,3,1,0,1.000,1.000,1.000,-90.00,178.93,-22.50,CLOSED,0
671054.669,3,1,0,1.000,1.000,1.000,-90.00,178.45,-22.50,CLOSED,0
671054.675,3,1,0,1.000,1.000,1.000,-90.00,178.07,-22.50,CLOSED,0
671054.679,3,1,0,1.000,1.000,1.000,-90.00,177.82,-22.50,CLOSED,0
671054.683,3,1,0,1.000,1.000,1.000,-90.00,177.59,-22.50,CLOSED,0
671054.688,3,1,0,1.000,1.000,1.000,-90.00,177.32,-22.50,CLOSED,0
671054.692,3,1,0,1.000,1.000,1.000,-90.00,177.07,-22.50,CLOSED,0
671054.698,3,1,0,1.000,1.000,1.000,-90.00,176.70,-22.50,CLOSED,0
671054.705,3,1,0,1.000,1.000,1.000,-90.00,176.31,-22.50,CLOSED,0
671054.710,3,1,0,1.000,1.000,1.000,-90.00,175.99,-22.50,CLOSED,0
671054.715,3,1,0,1.000,1.000,1.000,-90.00,175.68,-22.50,CLOSED,1
671054.720,3,1,0,1.000,1.000,1.000,-90.00,175.36,-22.50,CLOSED,0
671054.725,3,1,0,1.000,1.000,1.000,-90.00,175.07,-22.50,CLOSED,0
671054.730,3,1,0,1.000,1.000,1.000,-90.00,174.80,-22.50,CLOSED,0
671054.734,3,1,0,1.000,1.000,1.000,-90.00,174.54,-22.50,CLOSED,0
671054.740,3,1,0,1.000,1.000,1.000,-90.00,174.22,-22.50,CLOSED,0
671054.744,3,1,0,1.000,1.000,1.000,-90.00,173.97,-22.50,CLOSED,0
671054.747,3,1,0,1.000,1.000,1.000,-90.00,173.74,-22.50,CLOSED,0
671054.752,3,1,0,1.000,1.000,1.000,-90.00,173.50,-22.50,CLOSED,0
671054.756,3,1,0,1.000,1.000,1.000,-90.00,173.25,-22.50,CLOSED,0
671054.759,3,1,0,1.000,1.000,1.000,-90.00,173.03,-22.50,CLOSED,0
671054.763,3,1,0,1.000,1.000,1.000,-90.00,172.80,-22.50,CLOSED,0
671054.767,3,1,0,1.000,1.000,1.000,-90.00,172.56,-22.50,CLOSED,0
671054.773,3,1,0,1.000,1.000,1.000,-90.00,172.19,-22.50,CLOSED,0
671054.780,3,1,0,0.999,0.999,1.000,-90.00,171.79,-22.50,CLOSED,0
671054.789,3,1,0,0.998,0.986,1.000,-90.00,171.28,-22.50,CLOSED,0
671054.794,3,1,0,0.987,0.544,1.000,-90.00,170.95,-22.50,CLOSED,0
671054.799,3,1,0,0.807,0.859,1.000,-90.00,170.63,-22.50,CLOSED,0
671054.804,3,1,0,0.489,0.987,1.000,-90.00,170.34,-22.50,CLOSED,0
671054.809,3,1,0,0.795,0.994,1.000,-90.00,170.08,-22.50,CLOSED,0
671054.813,3,1,0,0.951,1.000,1.000,-90.00,169.79,-22.50,CLOSED,0
671054.817,3,1,0,0.999,1.000,1.000,-90.00,169.56,-22.50,CLOSED,1
671054.822,3,1,0,0.999,1.000,1.000,-90.00,169.29,-22.50,CLOSED,0
671054.826,3,1,0,1.000,1.000,1.000,-90.00,169.06,-22.50,CLOSED,0
671054.831,3,1,0,1.000,1.000,1.000,-90.00,168.73,-22.50,CLOSED,0
671054.836,3,1,0,1.000,1.000,1.000,-90.00,168.40,-22.50,CLOSED,0
671054.841,0,1,0,1.000,1.000,1.000,-90.00,168.14,-22.50,CLOSED,0
671054.845,0,1,0,1.000,1.000,1.000,-90.00,167.90,-22.50,CLOSED,0
671054.848,0,1,0,1.000,1.000,1.000,-90.00,167.68,-22.50,CLOSED,0
671054.852,0,1,0,1.000,1.000,1.000,-90.00,167.45,-22.50,CLOSED,0
671054.856,0,1,0,1.000,1.000,1.000,-90.00,167.21,-22.50,CLOSED,0
671054.861,0,1,0,1.000,1.000,1.000,-90.00,166.96,-22.50,CLOSED,0
671054.864,0,1,0,1.000,1.000,1.000,-90.00,166.73,-22.50,CLOSED,0
671054.869,0,1,0,1.000,1.000,1.000,-90.00,166.47,-22.50,CLOSED,0
671054.873,0,1,0,1.000,1.000,1.000,-90.00,166.23,-22.50,CLOSED,0
671054.879,0,1,0,1.000,1.000,1.000,-90.00,165.83,-22.50,CLOSED,0
671054.883,0,1,0,1.000,1.000,1.000,-90.00,165.58,-22.50,CLOSED,0
671054.887,0,1,0,1.000,1.000,1.000,-90.00,165.35,-22.50,CLOSED,0
671054.891,0,1,0,1.000,1.000,1.000,-90.00,165.11,-22.50,CLOSED,0
671054.895,0,1,0,1.000,1.000,1.000,-90.00,164.89,-22.50,CLOSED,0
671054.899,0,1,0,1.000,1.000,1.000,-90.00,164.63,-22.50,CLOSED,0
671054.905,0,1,0,1.000,1.000,1.000,-90.00,164.29,-22.50,CLOSED,0
671054.910,0,1,0,1.000,1.000,1.000,-90.00,163.97,-22.50,CLOSED,0
671054.915,0,1,0,1.000,1.000,1.000,-90.00,163.67,-22.50,CLOSED,0
671054.920,0,1,0,1.000,1.000,1.000,-90.00,163.38,-22.50,CLOSED,1
671054.928,0,1,0,1.000,1.000,1.000,-90.00,162.92,-22.50,CLOSED,0
671054.932,0,1,0,1.000,1.000,1.000,-90.00,162.66,-22.50,CLOSED,0
671054.936,0,1,0,1.000,1.000,1.000,-90.00,162.42,-22.50,CLOSED,0
671054.940,0,1,0,1.000,1.000,1.000,-90.00,162.18,-22.50,CLOSED,0
671054.944,0,1,0,1.000,1.000,1.000,-90.00,161.97,-22.50,CLOSED,0
671054.948,0,1,0,1.000,1.000,1.000,-90.00,161.73,-22.50,CLOSED,0
671054.952,0,1,0,1.000,1.000,1.000,-90.00,161.49,-22.50,CLOSED,0
671054.956,0,1,0,1.000,1.000,1.000,-90.00,161.24,-22.50,CLOSED,0
671054.960,0,1,0,1.000,1.000,1.000,-90.00,161.01,-22.50,CLOSED,0
671054.964,0,1,0,1.000,1.000,1.000,-90.00,160.78,-22.50,CLOSED,0
671054.967,0,1,0,1.000,1.000,1.000,-90.00,160.55,-22.50,CLOSED,0
671054.973,0,1,0,1.000,1.000,1.000,-90.00,160.23,-22.50,CLOSED,0
671054.977,0,1,0,1.000,1.000,1.000,-90.00,159.98,-22.50,CLOSED,0
671054.984,0,1,0,1.000,1.000,1.000,-90.00,159.56,-22.50,CLOSED,0
671054.990,0,1,0,1.000,1.000,1.000,-90.00,159.21,-22.50,CLOSED,0
671054.995,0,1,0,1.000,1.000,1.000,-90.00,158.86,-22.50,CLOSED,0
671055.002,0,1,0,1.000,1.000,1.000,-90.00,158.46,-22.50,CLOSED,0
671055.007,0,1,0,1.000,1.000,1.000,-90.00,158.15,-22.50,CLOSED,0
671055.012,0,1,0,1.000,1.000,1.000,-90.00,157.87,-22.50,CLOSED,0
671055.017,0,1,0,1.000,1.000,1.000,-90.00,157.58,-22.50,CLOSED,0
671055.022,0,1,0,1.000,1.000,1.000,-90.00,157.26,-22.50,CLOSED,1
671055.027,0,1,0,1.000,1.000,1.000,-90.00,156.98,-22.50,CLOSED,0
671055.031,0,1,0,1.000,1.000,1.000,-90.00,156.72,-22.50,CLOSED,0
671055.035,0,1,0,1.000,1.000,1.000,-90.00,156.48,-22.50,CLOSED,0
671055.039,0,1,0,1.000,1.000,1.000,-90.00,156.25,-22.50,CLOSED,0
671055.042,0,1,0,1.000,1.000,1.000,-90.00,156.04,-22.50,CLOSED,0
671055.046,0,1,0,1.000,1.000,1.000,-90.00,155.80,-22.50,CLOSED,0
671055.050,0,1,0,1.000,1.000,1.000,-90.00,155.60,-22.50,CLOSED,0
671055.054,0,1,0,1.000,1.000,1.000,-90.00,155.37,-22.50,CLOSED,0
671055.058,0,1,0,1.000,1.000,1.000,-90.00,155.12,-22.50,CLOSED,0
671055.062,0,1,0,1.000,1.000,1.000,-90.00,154.87,-22.50,CLOSED,0
671055.065,0,1,0,1.000,1.000,1.000,-90.00,154.66,-22.50,CLOSED,0
671055.069,0,1,0,1.000,1.000,1.000,-90.00,154.43,-22.50,CLOSED,0
671055.073,0,1,0,1.000,1.000,1.000,-90.00,154.18,-22.50,CLOSED,0
671055.078,0,1,0,1.000,1.000,1.000,-90.00,153.91,-22.50,CLOSED,0
671055.081,0,1,0,1.000,1.000,1.000,-90.00,153.70,-22.50,CLOSED,0
671055.086,0,1,0,1.000,1.000,1.000,-90.00,153.45,-22.50,CLOSED,0
671055.089,0,1,0,1.000,1.000,1.000,-90.00,153.23,-22.50,CLOSED,0
671055.094,0,1,0,1.000,1.000,1.000,-90.00,152.95,-22.50,CLOSED,0
671055.099,0,1,0,1.000,1.000,1.000,-90.00,152.66,-22.50,CLOSED,0
671055.108,0,1,0,1.000,1.000,1.000,-90.00,152.13,-22.50,CLOSED,0
671055.117,0,1,0,1.000,1.000,1.000,-90.00,151.59,-22.50,CLOSED,0
671055.125,0,1,0,1.000,1.000,1.000,-90.00,151.07,-22.50,CLOSED,1
671055.133,0,1,0,1.000,1.000,1.000,-90.00,150.61,-22.50,CLOSED,0
671055.140,0,1,0,1.000,1.000,1.000,-90.00,150.18,-22.50,CLOSED,0
671055.147,0,1,0,1.000,1.000,1.000,-90.00,149.77,-22.50,CLOSED,0
671055.154,0,1,0,1.000,1.000,1.000,-90.00,149.37,-22.50,CLOSED,0
671055.159,0,1,0,1.000,1.000,1.000,-90.00,149.06,-22.50,CLOSED,0
671055.163,0,1,0,1.000,1.000,1.000,-90.00,148.78,-22.50,CLOSED,0
671055.168,0,1,0,1.000,1.000,1.000,-90.00,148.54,-22.50,CLOSED,0
671055.175,0,1,0,1.000,1.000,1.000,-90.00,148.08,-22.50,CLOSED,0
671055.179,0,1,0,1.000,1.000,1.000,-90.00,147.85,-22.50,CLOSED,0
671055.183,0,1,0,1.000,1.000,1.000,-90.00,147.63,-22.50,CLOSED,0
671055.186,0,1,0,1.000,1.000,1.000,-90.00,147.40,-22.50,CLOSED,0
671055.196,0,1,0,1.000,1.000,1.000,-90.00,146.82,-22.50,CLOSED,0
671055.200,0,1,0,1.000,1.000,1.000,-90.00,146.57,-22.50,CLOSED,0
671055.204,0,1,0,1.000,1.000,1.000,-90.00,146.34,-22.50,CLOSED,0
671055.209,0,1,0,1.000,1.000,1.000,-90.00,146.07,-22.50,CLOSED,0
671055.213,0,1,0,1.000,1.000,1.000,-90.00,145.78,-22.50,CLOSED,0
671055.217,0,1,0,1.000,1.000,1.000,-90.00,145.55,-22.50,CLOSED,0
671055.222,0,1,0,1.000,1.000,1.000,-90.00,145.26,-22.50,CLOSED,0
671055.226,0,1,0,1.000,1.000,1.000,-90.00,145.03,-22.50,CLOSED,1
671055.230,0,1,0,1.000,1.000,1.000,-90.00,144.81,-22.50,CLOSED,0
671055.234,0,1,0,1.000,1.000,1.000,-90.00,144.58,-22.50,CLOSED,0
671055.244,0,1,0,1.000,1.000,1.000,-90.00,143.97,-22.50,CLOSED,0
671055.248,0,1,0,1.000,1.000,1.000,-90.00,143.73,-22.50,CLOSED,0
671055.252,0,1,0,1.000,1.000,1.000,-90.00,143.49,-22.50,CLOSED,0
671055.255,0,1,0,1.000,1.000,1.000,-90.00,143.26,-22.50,CLOSED,0
671055.260,0,1,0,1.000,1.000,1.000,-90.00,142.98,-22.50,CLOSED,0
671055.265,0,1,0,1.000,1.000,1.000,-90.00,142.69,-22.50,CLOSED,0
671055.273,0,1,0,1.000,1.000,1.000,-90.00,142.24,-22.50,CLOSED,0
671055.276,0,1,0,1.000,1.000,1.000,-90.00,142.01,-22.50,CLOSED,0
671055.284,0,1,0,1.000,1.000,1.000,-90.00,141.56,-22.50,CLOSED,0
671055.288,0,1,0,1.000,1.000,1.000,-90.00,141.33,-22.50,CLOSED,0
671055.294,0,1,0,1.000,1.000,1.000,-90.00,140.94,-22.50,CLOSED,0
671055.303,0,1,0,1.000,1.000,1.000,-90.00,140.40,-22.50,CLOSED,0
671055.310,0,1,0,1.000,1.000,1.000,-90.00,139.96,-22.50,CLOSED,0
671055.317,0,1,0,1.000,1.000,1.000,-90.00,139.59,-22.50,CLOSED,0
671055.323,0,1,0,1.000,1.000,1.000,-90.00,139.21,-22.50,CLOSED,0
671055.329,0,1,0,1.000,1.000,1.000,-90.00,138.86,-22.50,CLOSED,1
671055.335,0,0,0,1.000,1.000,1.000,-90.00,139.20,-22.50,CLOSED,0
671055.345,0,0,0,1.000,1.000,1.000,-90.00,139.84,-22.50,CLOSED,0
671055.350,0,0,0,1.000,1.000,1.000,-90.00,140.13,-22.50,CLOSED,0
671055.355,0,0,0,1.000,1.000,1.000,-90.00,140.42,-22.50,CLOSED,0
671055.359,0,0,0,1.000,1.000,1.000,-90.00,140.67,-22.50,CLOSED,0
671055.363,0,0,0,1.000,1.000,1.000,-90.00,140.91,-22.50,CLOSED,0
671055.367,0,0,0,1.000,1.000,1.000,-90.00,141.15,-22.50,CLOSED,0
671055.371,0,0,0,1.000,1.000,1.000,-90.00,141.39,-22.50,CLOSED,0
671055.375,0,0,0,1.000,1.000,1.000,-90.00,141.63,-22.50,CLOSED,0
671055.379,0,0,0,1.000,1.000,1.000,-90.00,141.88,-22.50,CLOSED,0
671055.383,0,0,0,1.000,1.000,1.000,-90.00,142.14,-22.50,CLOSED,0
671055.388,0,0,0,1.000,1.000,1.000,-90.00,142.38,-22.50,CLOSED,0
