t,hand,elbow,shoulder,p_hand,p_elbow,p_shoulder,J2,J3,J6,grip_state,cmd_sent
654846.722,0,0,0,0.981,1.000,0.999,-90.00,180.00,0.00,OPEN,0
654846.738,0,0,0,0.997,1.000,0.999,-90.00,180.00,0.00,OPEN,0
654846.744,0,0,0,1.000,1.000,0.998,-90.00,180.00,0.00,OPEN,0
654846.750,0,0,0,1.000,1.000,0.999,-90.00,180.00,0.00,OPEN,0
654846.755,0,0,0,1.000,1.000,0.999,-90.00,180.00,0.00,OPEN,0
654846.759,0,0,0,1.000,1.000,0.999,-90.00,180.00,0.00,OPEN,0
654846.764,0,0,0,1.000,1.000,0.999,-90.00,180.00,0.00,OPEN,0
654846.768,0,0,0,1.000,1.000,0.999,-90.00,180.00,0.00,OPEN,0
654846.773,0,0,0,1.000,1.000,0.999,-90.00,180.00,0.00,OPEN,0
654846.777,0,0,0,1.000,1.000,0.999,-90.00,180.00,0.00,OPEN,0
654846.781,0,0,0,1.000,1.000,0.999,-90.00,180.00,0.00,OPEN,0
654846.785,0,0,0,1.000,1.000,0.998,-90.00,180.00,0.00,OPEN,0
654846.790,0,0,0,1.000,1.000,0.998,-90.00,180.00,0.00,OPEN,0
654846.794,0,0,0,1.000,1.000,0.998,-90.00,180.00,0.00,OPEN,0
654846.798,0,0,0,1.000,1.000,0.996,-90.00,180.00,0.00,OPEN,0
654846.801,0,0,0,1.000,1.000,0.995,-90.00,180.00,0.00,OPEN,0
654846.805,0,0,0,1.000,1.000,0.997,-90.00,180.00,0.00,OPEN,0
654846.810,0,0,0,1.000,1.000,0.996,-90.00,180.00,0.00,OPEN,0
654846.814,0,0,0,1.000,1.000,0.997,-90.00,180.00,0.00,OPEN,0
654846.817,0,0,0,1.000,1.000,0.997,-90.00,180.00,0.00,OPEN,0
654846.821,0,0,0,1.000,1.000,0.992,-90.00,180.00,0.00,OPEN,0
654846.825,0,0,0,1.000,1.000,0.988,-90.00,180.00,0.00,OPEN,0
654846.830,0,0,0,1.000,1.000,0.972,-90.00,180.00,0.00,OPEN,0
654846.835,0,0,0,1.000,1.000,0.994,-90.00,180.00,0.00,OPEN,0
654846.840,0,0,0,1.000,1.000,0.996,-90.00,180.00,0.00,OPEN,0
654846.845,0,0,0,1.000,1.000,0.993,-90.00,180.00,0.00,OPEN,0
654846.850,0,0,0,1.000,1.000,0.994,-90.00,180.00,0.00,OPEN,0
654846.855,0,0,0,1.000,1.000,0.993,-90.00,180.00,0.00,OPEN,0
654846.860,0,0,0,1.000,1.000,0.994,-90.00,180.00,0.00,OPEN,0
654846.865,0,0,0,1.000,1.000,0.985,-90.00,180.00,0.00,OPEN,0
654846.869,0,0,0,1.000,1.000,0.889,-90.00,180.00,0.00,OPEN,0
654846.873,0,0,0,1.000,1.000,0.814,-90.00,180.00,0.00,OPEN,0
654846.877,0,0,0,1.000,1.000,0.943,-90.00,180.00,0.00,OPEN,0
654846.881,0,0,0,1.000,1.000,0.984,-90.00,180.00,0.00,OPEN,0
654846.885,0,0,0,1.000,1.000,0.991,-90.00,180.00,0.00,OPEN,0
654846.890,0,0,0,1.000,1.000,0.992,-90.00,180.00,0.00,OPEN,0
654846.894,0,0,0,1.000,1.000,0.995,-90.00,180.00,0.00,OPEN,0
654846.900,0,0,0,1.000,1.000,0.996,-90.00,180.00,0.00,OPEN,0
654846.904,0,0,0,1.000,1.000,0.998,-90.00,180.00,0.00,OPEN,0
654846.909,0,0,0,1.000,1.000,0.998,-90.00,180.00,0.00,OPEN,0
654846.914,0,0,0,1.000,1.000,0.997,-90.00,180.00,0.00,OPEN,0
654846.918,0,0,0,1.000,1.000,0.994,-90.00,180.00,0.00,OPEN,0
654846.923,0,0,0,1.000,1.000,0.994,-90.00,180.00,0.00,OPEN,0
654846.927,0,0,0,1.000,1.000,0.993,-90.00,180.00,0.00,OPEN,0
654846.931,0,0,0,1.000,1.000,0.989,-90.00,180.00,0.00,OPEN,0
654846.935,0,0,0,1.000,1.000,0.981,-90.00,180.00,0.00,OPEN,0
654846.938,0,0,0,1.000,1.000,0.978,-90.00,180.00,0.00,OPEN,0
654846.942,0,0,0,1.000,1.000,0.983,-90.00,180.00,0.00,OPEN,0
654846.948,0,0,0,1.000,1.000,0.993,-90.00,180.00,0.00,OPEN,0
654846.953,0,0,0,1.000,1.000,0.992,-90.00,180.00,0.00,OPEN,0
654846.957,0,0,0,1.000,1.000,0.992,-90.00,180.00,0.00,OPEN,0
654846.962,0,0,0,1.000,1.000,0.989,-90.00,180.00,0.00,OPEN,0
654846.967,0,0,0,1.000,1.000,0.988,-90.00,180.00,0.00,OPEN,0
654846.972,0,0,0,1.000,1.000,0.957,-90.00,180.00,0.00,OPEN,0
654846.976,0,0,0,1.000,1.000,0.920,-90.00,180.00,0.00,OPEN,0
654846.980,0,0,0,1.000,1.000,0.942,-90.00,180.00,0.00,OPEN,0
654846.984,0,0,0,1.000,1.000,0.936,-90.00,180.00,0.00,OPEN,0
654846.988,0,0,0,1.000,1.000,0.935,-90.00,180.00,0.00,OPEN,0
654846.992,0,0,0,1.000,1.000,0.911,-90.00,180.00,0.00,OPEN,0
654846.996,0,0,0,1.000,1.000,0.908,-90.00,180.00,0.00,OPEN,0
654847.000,0,0,0,1.000,1.000,0.968,-90.00,180.00,0.00,OPEN,0
654847.005,0,0,0,1.000,1.000,0.969,-90.00,180.00,0.00,OPEN,0
654847.009,0,0,0,1.000,1.000,0.981,-90.00,180.00,0.00,OPEN,0
654847.013,0,0,0,1.000,1.000,0.995,-90.00,180.00,0.00,OPEN,0
654847.017,0,0,0,1.000,1.000,0.996,-90.00,180.00,0.00,OPEN,0
654847.021,0,0,0,1.000,1.000,0.996,-90.00,180.00,0.00,OPEN,0
654847.025,0,0,0,1.000,1.000,0.994,-90.00,180.00,0.00,OPEN,0
654847.029,0,0,0,1.000,1.000,0.990,-90.00,180.00,0.00,OPEN,0
654847.033,0,0,0,1.000,1.000,0.986,-90.00,180.00,0.00,OPEN,0
654847.036,0,0,0,1.000,1.000,0.987,-90.00,180.00,0.00,OPEN,0
654847.040,0,0,0,1.000,1.000,0.982,-90.00,180.00,0.00,OPEN,0
654847.045,0,0,0,1.000,1.000,0.978,-90.00,180.00,0.00,OPEN,0
654847.049,0,0,0,1.000,1.000,0.983,-90.00,180.00,0.00,OPEN,0
654847.053,0,0,0,1.000,1.000,0.988,-90.00,180.00,0.00,OPEN,0
654847.056,0,0,0,1.000,1.000,0.994,-90.00,180.00,0.00,OPEN,0
654847.060,0,0,0,1.000,1.000,0.994,-90.00,180.00,0.00,OPEN,0
654847.064,0,0,0,1.000,1.000,0.990,-90.00,180.00,0.00,OPEN,0
654847.068,0,0,0,1.000,1.000,0.991,-90.00,180.00,0.00,OPEN,0
654847.072,0,0,0,1.000,1.000,0.989,-90.00,180.00,0.00,OPEN,0
654847.076,0,0,0,1.000,1.000,0.986,-90.00,180.00,0.00,OPEN,0
654847.080,0,0,0,1.000,1.000,0.985,-90.00,180.00,0.00,OPEN,0
654847.084,0,0,0,1.000,1.000,0.981,-90.00,180.00,0.00,OPEN,0
654847.088,0,0,0,1.000,1.000,0.979,-90.00,180.00,0.00,OPEN,0
654847.091,0,0,0,1.000,1.000,0.988,-90.00,180.00,0.00,OPEN,0
654847.095,0,0,0,1.000,1.000,0.987,-90.00,180.00,0.00,OPEN,0
654847.099,0,0,0,1.000,1.000,0.987,-90.00,180.00,0.00,OPEN,0
654847.104,0,0,0,1.000,1.000,0.987,-90.00,180.00,0.00,OPEN,0
654847.107,0,0,0,1.000,1.000,0.990,-90.00,180.00,0.00,OPEN,0
654847.112,0,0,0,1.000,1.000,0.994,-90.00,180.00,0.00,OPEN,0
654847.116,0,0,0,1.000,1.000,0.989,-90.00,180.00,0.00,OPEN,0
654847.120,0,0,0,1.000,1.000,0.987,-90.00,180.00,0.00,OPEN,0
654847.124,0,0,0,1.000,1.000,0.987,-90.00,180.00,0.00,OPEN,0
654847.128,0,0,0,1.000,1.000,0.990,-90.00,180.00,0.00,OPEN,0
654847.132,0,0,0,1.000,1.000,0.981,-90.00,180.00,0.00,OPEN,0
654847.136,0,0,0,1.000,1.000,0.979,-90.00,180.00,0.00,OPEN,0
654847.140,0,0,0,1.000,1.000,0.985,-90.00,180.00,0.00,OPEN,0
654847.143,0,0,0,1.000,1.000,1.000,-90.00,180.00,0.00,OPEN,0
654847.147,0,0,0,1.000,1.000,1.000,-90.00,180.00,0.00,OPEN,0
654847.151,0,0,0,1.000,1.000,1.000,-90.00,180.00,0.00,OPEN,0
654847.155,0,0,0,1.000,1.000,1.000,-90.00,180.00,0.00,OPEN,0
654847.159,0,0,0,1.000,1.000,1.000,-90.00,180.00,0.00,OPEN,0
654847.164,0,0,0,1.000,1.000,1.000,-90.00,180.00,0.00,OPEN,0
654847.167,0,0,0,1.000,1.000,1.000,-90.00,180.00,0.00,OPEN,0
654847.171,0,1,1,1.000,1.000,1.000,0.00,90.00,0.00,OPEN,1
654847.177,0,1,1,1.000,1.000,1.000,0.00,90.00,0.00,OPEN,0
654847.180,0,1,1,1.000,1.000,1.000,0.00,90.00,0.00,OPEN,0
654847.184,0,1,1,1.000,1.000,1.000,0.00,90.00,0.00,OPEN,0
654847.188,0,1,1,1.000,1.000,1.000,0.00,90.00,0.00,OPEN,0
654847.192,0,1,1,1.000,1.000,1.000,0.00,90.00,0.00,OPEN,0
654847.195,0,1,1,1.000,1.000,1.000,0.00,90.00,0.00,OPEN,0
654847.199,0,1,1,1.000,1.000,1.000,0.00,90.00,0.00,OPEN,0
654847.202,0,1,1,1.000,1.000,1.000,0.00,90.00,0.00,OPEN,0
654847.208,0,1,1,1.000,1.000,1.000,0.00,90.00,0.00,OPEN,0
654847.213,0,1,1,1.000,1.000,1.000,0.00,90.00,0.00,OPEN,0
654847.218,0,1,1,1.000,1.000,0.924,0.00,90.00,0.00,OPEN,0
654847.223,0,1,1,1.000,1.000,0.700,0.00,90.00,0.00,OPEN,0
654847.228,0,1,1,1.000,1.000,0.790,0.00,90.00,0.00,OPEN,0
654847.232,0,1,1,1.000,1.000,1.000,0.00,90.00,0.00,OPEN,0
654847.236,0,1,1,1.000,1.000,1.000,0.00,90.00,0.00,OPEN,0
654847.240,0,1,1,1.000,1.000,1.000,0.00,90.00,0.00,OPEN,0
654847.244,0,1,1,0.773,1.000,1.000,0.00,90.00,0.00,OPEN,0
654847.248,0,1,1,1.000,1.000,1.000,0.00,90.00,0.00,OPEN,0
654847.252,0,0,1,1.000,1.000,1.000,0.00,180.00,0.00,OPEN,0
654847.256,0,0,1,1.000,1.000,1.000,0.00,180.00,0.00,OPEN,0
654847.260,0,0,0,1.000,1.000,1.000,-90.00,180.00,0.00,OPEN,0
654847.264,0,0,0,1.000,1.000,1.000,-90.00,180.00,0.00,OPEN,0
654847.268,0,0,0,1.000,1.000,1.000,-90.00,180.00,0.00,OPEN,0
654847.272,0,0,0,1.000,0.522,0.982,-90.00,180.00,0.00,OPEN,1
654847.276,0,0,0,1.000,0.998,0.732,-90.00,180.00,0.00,OPEN,0
654847.280,0,0,0,1.000,1.000,0.598,-90.00,180.00,0.00,OPEN,0
654847.284,0,0,0,1.000,1.000,0.546,-90.00,180.00,0.00,OPEN,0
654847.288,0,0,0,1.000,1.000,0.600,-90.00,180.00,0.00,OPEN,0
654847.293,0,0,0,1.000,1.000,0.996,-90.00,180.00,0.00,OPEN,0
654847.297,0,0,0,1.000,1.000,0.976,-90.00,180.00,0.00,OPEN,0
654847.301,0,0,0,1.000,1.000,0.959,-90.00,180.00,0.00,OPEN,0
654847.305,0,0,0,1.000,1.000,0.984,-90.00,180.00,0.00,OPEN,0
654847.309,0,0,0,1.000,0.992,0.988,-90.00,180.00,0.00,OPEN,0
654847.313,0,0,0,1.000,0.973,0.978,-90.00,180.00,0.00,OPEN,0
654847.318,0,0,0,1.000,0.743,0.999,-90.00,180.00,0.00,OPEN,0
654847.322,0,0,0,1.000,1.000,1.000,-90.00,180.00,0.00,OPEN,0
654847.327,0,0,0,1.000,1.000,0.995,-90.00,180.00,0.00,OPEN,0
654847.331,0,0,0,1.000,0.810,0.803,-90.00,180.00,0.00,OPEN,0
654847.335,0,0,0,1.000,0.977,0.574,-90.00,180.00,0.00,OPEN,0
654847.340,0,0,0,1.000,0.949,0.637,-90.00,180.00,0.00,OPEN,0
654847.345,0,0,0,1.000,0.778,0.794,-90.00,180.00,0.00,OPEN,0
654847.350,0,0,0,1.000,0.995,0.992,-90.00,180.00,0.00,OPEN,0
654847.354,0,0,0,1.000,1.000,1.000,-90.00,180.00,0.00,OPEN,0
654847.358,0,0,0,1.000,1.000,1.000,-90.00,180.00,0.00,OPEN,0
654847.362,0,0,0,1.000,1.000,1.000,-90.00,180.00,0.00,OPEN,0
654847.366,0,0,0,1.000,1.000,1.000,-90.00,180.00,0.00,OPEN,0
654847.370,0,0,0,1.000,1.000,1.000,-90.00,180.00,0.00,OPEN,0
654847.374,0,0,0,1.000,1.000,1.000,-90.00,180.00,0.00,OPEN,0
654847.378,0,0,0,1.000,1.000,1.000,-90.00,180.00,0.00,OPEN,0
654847.382,0,0,0,1.000,1.000,0.956,-90.00,180.00,0.00,OPEN,0
654847.387,0,0,0,1.000,1.000,0.562,-90.00,180.00,0.00,OPEN,0
654847.392,0,0,0,1.000,1.000,1.000,-90.00,180.00,0.00,OPEN,0
654847.396,0,0,0,1.000,1.000,1.000,-90.00,180.00,0.00,OPEN,0
654847.400,0,0,0,1.000,1.000,1.000,-90.00,180.00,0.00,OPEN,0
654847.405,0,0,0,1.000,1.000,1.000,-90.00,180.00,0.00,OPEN,0
654847.409,0,0,0,1.000,1.000,1.000,-90.00,180.00,0.00,OPEN,0
654847.414,0,0,0,1.000,1.000,1.000,-90.00,180.00,0.00,OPEN,0
654847.418,0,0,0,1.000,1.000,1.000,-90.00,180.00,0.00,OPEN,0
654847.422,0,0,0,1.000,1.000,1.000,-90.00,180.00,0.00,OPEN,0
654847.426,0,0,0,1.000,1.000,1.000,-90.00,180.00,0.00,OPEN,0
654847.430,0,0,0,1.000,1.000,1.000,-90.00,180.00,0.00,OPEN,0
654847.435,0,0,0,1.000,1.000,1.000,-90.00,180.00,0.00,OPEN,0
654847.439,0,0,0,1.000,1.000,1.000,-90.00,180.00,0.00,OPEN,0
654847.444,0,0,0,1.000,1.000,1.000,-90.00,180.00,0.00,OPEN,0
654847.449,0,0,0,1.000,1.000,1.000,-90.00,180.00,0.00,OPEN,0
654847.453,0,0,0,1.000,1.000,1.000,-90.00,180.00,0.00,OPEN,0
654847.457,0,0,0,1.000,1.000,1.000,-90.00,180.00,0.00,OPEN,0
654847.462,0,0,0,1.000,1.000,1.000,-90.00,180.00,0.00,OPEN,0
654847.466,0,0,0,1.000,0.999,1.000,-90.00,180.00,0.00,OPEN,0
654847.472,0,0,0,1.000,0.847,0.986,-90.00,180.00,0.00,OPEN,0
654847.476,0,0,0,1.000,1.000,0.759,-90.00,180.00,0.00,OPEN,0
654847.480,0,0,0,1.000,1.000,0.965,-90.00,180.00,0.00,OPEN,0
654847.485,0,0,0,1.000,1.000,0.994,-90.00,180.00,0.00,OPEN,0
654847.489,0,0,0,1.000,1.000,0.994,-90.00,180.00,0.00,OPEN,0
654847.493,0,0,0,1.000,1.000,0.993,-90.00,180.00,0.00,OPEN,0
654847.497,0,0,0,1.000,1.000,0.991,-90.00,180.00,0.00,OPEN,0
654847.502,0,0,0,1.000,1.000,0.987,-90.00,180.00,0.00,OPEN,0
654847.507,0,0,0,1.000,1.000,0.991,-90.00,180.00,0.00,OPEN,0
654847.513,0,0,0,1.000,1.000,0.995,-90.00,180.00,0.00,OPEN,0
654847.517,0,0,0,1.000,1.000,0.993,-90.00,180.00,0.00,OPEN,0
654847.522,0,0,0,1.000,1.000,0.985,-90.00,180.00,0.00,OPEN,0
654847.527,0,0,0,1.000,1.000,0.981,-90.00,180.00,0.00,OPEN,0
654847.531,0,0,0,1.000,1.000,0.991,-90.00,180.00,0.00,OPEN,0
654847.536,0,0,0,1.000,1.000,0.989,-90.00,180.00,0.00,OPEN,0
654847.540,0,0,0,1.000,1.000,0.980,-90.00,180.00,0.00,OPEN,0
654847.544,0,0,0,1.000,1.000,0.959,-90.00,180.00,0.00,OPEN,0
654847.548,0,0,0,1.000,1.000,0.587,-90.00,180.00,0.00,OPEN,0
654847.552,0,0,0,1.000,1.000,0.505,-90.00,180.00,0.00,OPEN,0
654847.557,0,0,0,1.000,1.000,0.514,-90.00,180.00,0.00,OPEN,0
654847.561,0,0,0,1.000,1.000,0.504,-90.00,180.00,0.00,OPEN,0
654847.565,0,0,0,1.000,1.000,0.527,-90.00,180.00,0.00,OPEN,0
654847.569,0,0,0,1.000,1.000,0.761,-90.00,180.00,0.00,OPEN,0
654847.573,0,0,0,1.000,1.000,0.892,-90.00,180.00,0.00,OPEN,0
654847.577,0,0,0,1.000,1.000,0.929,-90.00,180.00,0.00,OPEN,0
654847.581,0,0,0,1.000,1.000,0.940,-90.00,180.00,0.00,OPEN,0
654847.585,0,0,0,1.000,1.000,0.913,-90.00,180.00,0.00,OPEN,0
654847.588,0,0,0,1.000,1.000,0.912,-90.00,180.00,0.00,OPEN,0
654847.594,0,0,0,1.000,1.000,0.848,-90.00,180.00,0.00,OPEN,0
654847.602,0,0,0,1.000,1.000,0.874,-90.00,180.00,0.00,OPEN,0
654847.616,0,0,0,1.000,1.000,0.876,-90.00,180.00,0.00,OPEN,0
654847.624,0,0,0,1.000,1.000,0.909,-90.00,180.00,0.00,OPEN,0
654847.632,0,0,0,1.000,1.000,0.925,-90.00,180.00,0.00,OPEN,0
654847.639,0,0,0,1.000,1.000,0.970,-90.00,180.00,0.00,OPEN,0
654847.644,0,0,0,1.000,1.000,0.980,-90.00,180.00,0.00,OPEN,0
654847.649,0,0,0,1.000,1.000,0.982,-90.00,180.00,0.00,OPEN,0
654847.654,0,0,0,1.000,1.000,0.990,-90.00,180.00,0.00,OPEN,0
654847.659,0,0,0,1.000,1.000,0.993,-90.00,180.00,0.00,OPEN,0
654847.663,0,0,1,1.000,1.000,0.991,0.00,180.00,0.00,OPEN,1
654847.667,0,0,1,1.000,1.000,0.993,0.00,180.00,0.00,OPEN,0
654847.671,0,0,1,1.000,1.000,0.995,0.00,180.00,0.00,OPEN,0
654847.675,0,0,1,1.000,1.000,0.995,0.00,180.00,0.00,OPEN,0
654847.679,0,0,1,1.000,1.000,0.996,0.00,180.00,0.00,OPEN,0
654847.683,0,0,1,1.000,1.000,0.997,0.00,180.00,0.00,OPEN,0
654847.687,0,0,1,1.000,1.000,0.988,0.00,180.00,0.00,OPEN,0
654847.691,0,0,1,1.000,1.000,0.949,0.00,180.00,0.00,OPEN,0
654847.694,0,0,1,1.000,1.000,0.769,0.00,180.00,0.00,OPEN,0
654847.698,0,0,1,1.000,1.000,0.682,0.00,180.00,0.00,OPEN,0
654847.702,0,0,1,1.000,1.000,0.598,0.00,180.00,0.00,OPEN,0
654847.706,0,0,1,1.000,1.000,0.619,0.00,180.00,0.00,OPEN,0
654847.710,0,0,1,1.000,1.000,0.518,0.00,180.00,0.00,OPEN,0
654847.713,0,0,1,1.000,1.000,0.527,0.00,180.00,0.00,OPEN,0
654847.717,0,0,1,1.000,1.000,0.560,0.00,180.00,0.00,OPEN,0
654847.722,0,0,1,1.000,1.000,0.534,0.00,180.00,0.00,OPEN,0
654847.728,0,0,1,1.000,1.000,0.687,0.00,180.00,0.00,OPEN,0
654847.733,0,0,1,1.000,1.000,0.702,0.00,180.00,0.00,OPEN,0
654847.738,0,0,1,1.000,1.000,0.818,0.00,180.00,0.00,OPEN,0
654847.743,0,0,1,1.000,1.000,0.739,0.00,180.00,0.00,OPEN,0
654847.748,0,0,1,1.000,1.000,0.771,0.00,180.00,0.00,OPEN,0
654847.752,0,0,1,1.000,1.000,0.750,0.00,180.00,0.00,OPEN,0
654847.756,0,0,1,1.000,1.000,0.721,0.00,180.00,0.00,OPEN,0
654847.762,0,0,1,1.000,1.000,0.617,0.00,180.00,0.00,OPEN,0
654847.766,0,0,1,1.000,1.000,0.580,0.00,180.00,0.00,OPEN,0
654847.770,0,0,1,1.000,1.000,0.666,0.00,180.00,0.00,OPEN,0
654847.774,0,0,1,1.000,1.000,0.615,0.00,180.00,0.00,OPEN,0
654847.779,0,0,1,1.000,1.000,0.527,0.00,180.00,0.00,OPEN,0
654847.784,0,0,1,1.000,1.000,0.607,0.00,180.00,0.00,OPEN,0
654847.790,0,0,1,1.000,1.000,0.608,0.00,180.00,0.00,OPEN,0
654847.794,0,0,1,1.000,1.000,0.708,0.00,180.00,0.00,OPEN,0
654847.799,0,0,1,1.000,1.000,0.855,0.00,180.00,0.00,OPEN,0
654847.803,0,0,1,1.000,1.000,0.816,0.00,180.00,0.00,OPEN,0
654847.807,0,0,1,1.000,1.000,0.858,0.00,180.00,0.00,OPEN,0
654847.811,0,0,1,1.000,1.000,0.850,0.00,180.00,0.00,OPEN,0
654847.814,0,0,1,1.000,1.000,0.653,0.00,180.00,0.00,OPEN,0
654847.818,0,0,1,1.000,1.000,0.612,0.00,180.00,0.00,OPEN,0
654847.822,0,0,1,1.000,1.000,0.638,0.00,180.00,0.00,OPEN,0
654847.825,0,0,1,1.000,1.000,0.707,0.00,180.00,0.00,OPEN,0
654847.829,0,0,1,1.000,1.000,0.766,0.00,180.00,0.00,OPEN,0
654847.834,0,0,1,1.000,1.000,0.682,0.00,180.00,0.00,OPEN,0
654847.841,0,0,1,1.000,1.000,0.505,0.00,180.00,0.00,OPEN,0
654847.847,0,0,1,1.000,1.000,0.640,0.00,180.00,0.00,OPEN,0
654847.854,0,0,1,1.000,1.000,0.733,0.00,180.00,0.00,OPEN,0
654847.860,0,0,1,1.000,1.000,1.000,0.00,180.00,0.00,OPEN,0
654847.865,0,0,1,1.000,1.000,1.000,0.00,180.00,0.00,OPEN,0
654847.870,0,0,1,1.000,1.000,1.000,0.00,180.00,0.00,OPEN,0
654847.874,0,0,1,1.000,1.000,1.000,0.00,180.00,0.00,OPEN,0
654847.878,0,0,1,1.000,1.000,1.000,0.00,180.00,0.00,OPEN,0
654847.882,0,0,0,1.000,1.000,1.000,-90.00,180.00,0.00,OPEN,1
654847.886,0,0,0,1.000,1.000,1.000,-90.00,180.00,0.00,OPEN,0
654847.891,0,0,0,1.000,1.000,1.000,-90.00,180.00,0.00,OPEN,0
654847.895,0,0,0,1.000,1.000,1.000,-90.00,180.00,0.00,OPEN,0
654847.899,0,0,0,1.000,1.000,1.000,-90.00,180.00,0.00,OPEN,0
654847.903,0,0,0,0.984,1.000,1.000,-90.00,180.00,0.00,OPEN,0
654847.907,0,0,0,0.985,1.000,1.000,-90.00,180.00,0.00,OPEN,0
654847.911,0,0,0,0.968,1.000,1.000,-90.00,180.00,0.00,OPEN,0
654847.915,0,0,0,0.966,1.000,1.000,-90.00,180.00,0.00,OPEN,0
654847.919,0,0,0,0.962,1.000,1.000,-90.00,180.00,0.00,OPEN,0
654847.924,0,0,0,0.957,1.000,1.000,-90.00,180.00,0.00,OPEN,0
654847.927,0,0,0,0.937,1.000,1.000,-90.00,180.00,0.00,OPEN,0
654847.931,0,1,0,0.984,1.000,1.000,-90.00,90.00,0.00,OPEN,0
654847.935,0,1,0,0.999,1.000,1.000,-90.00,90.00,0.00,OPEN,0
654847.939,0,1,0,1.000,1.000,1.000,-90.00,90.00,0.00,OPEN,0
654847.943,0,1,0,1.000,0.985,0.999,-90.00,90.00,0.00,OPEN,0
654847.947,0,1,0,1.000,1.000,1.000,-90.00,90.00,0.00,OPEN,0
654847.950,0,1,0,1.000,1.000,1.000,-90.00,90.00,0.00,OPEN,0
654847.954,0,1,0,1.000,0.997,1.000,-90.00,90.00,0.00,OPEN,0
654847.958,2,1,0,1.000,1.000,1.000,-90.00,90.00,-4.50,OPEN,0
654847.962,2,1,0,1.000,1.000,1.000,-90.00,90.00,-4.50,OPEN,0
654847.966,2,1,0,1.000,1.000,1.000,-90.00,90.00,-4.50,OPEN,0
654847.970,2,1,0,1.000,1.000,1.000,-90.00,90.00,-4.50,OPEN,0
654847.973,2,1,0,1.000,0.996,0.988,-90.00,90.00,-4.50,OPEN,0
654847.978,2,1,0,1.000,0.999,0.980,-90.00,90.00,-4.50,OPEN,0
654847.982,2,1,0,1.000,0.999,0.977,-90.00,90.00,-4.50,OPEN,0
654847.986,2,1,0,1.000,0.998,0.962,-90.00,90.00,-4.50,OPEN,1
654847.990,2,1,0,1.000,0.958,0.800,-90.00,90.00,-4.50,OPEN,0
654847.994,2,1,0,1.000,1.000,0.998,-90.00,90.00,-4.50,OPEN,0
654847.998,2,1,0,1.000,1.000,1.000,-90.00,90.00,-4.50,OPEN,0
654848.002,2,1,0,1.000,1.000,1.000,-90.00,90.00,-4.50,OPEN,0
654848.005,2,1,0,1.000,1.000,1.000,-90.00,90.00,-4.50,OPEN,0
654848.009,2,1,0,1.000,1.000,1.000,-90.00,90.00,-4.50,OPEN,0
654848.014,2,1,0,1.000,1.000,1.000,-90.00,90.00,-4.50,OPEN,0
654848.018,2,1,0,1.000,1.000,1.000,-90.00,90.00,-4.50,OPEN,0
654848.022,2,0,0,1.000,1.000,1.000,-90.00,180.00,-4.50,OPEN,0
654848.026,2,0,0,1.000,1.000,1.000,-90.00,180.00,-4.50,OPEN,0
654848.031,2,0,0,1.000,1.000,1.000,-90.00,180.00,-4.50,OPEN,0
654848.034,2,0,0,1.000,1.000,1.000,-90.00,180.00,-4.50,OPEN,0
654848.038,2,0,0,1.000,1.000,1.000,-90.00,180.00,-4.50,OPEN,0
654848.043,2,0,0,1.000,1.000,1.000,-90.00,180.00,-4.50,OPEN,0
654848.047,2,0,0,1.000,1.000,1.000,-90.00,180.00,-4.50,OPEN,0
654848.052,2,0,0,1.000,1.000,1.000,-90.00,180.00,-4.50,OPEN,0
654848.056,2,0,0,1.000,1.000,1.000,-90.00,180.00,-4.50,OPEN,0
654848.060,2,0,0,1.000,1.000,1.000,-90.00,180.00,-9.00,OPEN,0
654848.064,2,0,0,1.000,1.000,1.000,-90.00,180.00,-9.00,OPEN,0
654848.067,2,0,0,1.000,1.000,1.000,-90.00,180.00,-9.00,OPEN,0
654848.071,2,0,0,1.000,1.000,1.000,-90.00,180.00,-9.00,OPEN,0
654848.075,2,0,0,1.000,1.000,1.000,-90.00,180.00,-9.00,OPEN,0
654848.079,2,0,0,1.000,1.000,1.000,-90.00,180.00,-9.00,OPEN,0
654848.083,2,0,0,1.000,1.000,1.000,-90.00,180.00,-9.00,OPEN,0
654848.086,2,0,0,1.000,1.000,1.000,-90.00,180.00,-9.00,OPEN,1
654848.091,2,0,0,1.000,1.000,1.000,-90.00,180.00,-9.00,OPEN,0
654848.095,2,0,0,1.000,1.000,1.000,-90.00,180.00,-9.00,OPEN,0
654848.099,2,0,0,1.000,1.000,1.000,-90.00,180.00,-9.00,OPEN,0
654848.103,2,0,0,1.000,1.000,1.000,-90.00,180.00,-9.00,OPEN,0
654848.106,2,0,0,1.000,1.000,1.000,-90.00,180.00,-9.00,OPEN,0
654848.111,2,0,0,1.000,1.000,1.000,-90.00,180.00,-9.00,OPEN,0
654848.115,2,0,0,1.000,1.000,1.000,-90.00,180.00,-9.00,OPEN,0
654848.120,2,0,0,1.000,1.000,1.000,-90.00,180.00,-9.00,OPEN,0
654848.125,2,0,0,1.000,1.000,1.000,-90.00,180.00,-9.00,OPEN,0
654848.128,2,0,0,1.000,1.000,1.000,-90.00,180.00,-9.00,OPEN,0
654848.132,2,0,0,1.000,1.000,1.000,-90.00,180.00,-9.00,OPEN,0
654848.136,2,0,0,1.000,1.000,1.000,-90.00,180.00,-9.00,OPEN,0
654848.139,2,0,0,1.000,1.000,1.000,-90.00,180.00,-9.00,OPEN,0
654848.143,2,0,0,1.000,1.000,1.000,-90.00,180.00,-9.00,OPEN,0
654848.147,2,0,0,1.000,1.000,1.000,-90.00,180.00,-9.00,OPEN,0
654848.151,2,0,0,1.000,1.000,1.000,-90.00,180.00,-9.00,OPEN,0
654848.157,2,0,0,1.000,1.000,1.000,-90.00,180.00,-9.00,OPEN,0
654848.161,2,0,0,1.000,1.000,1.000,-90.00,180.00,-13.50,OPEN,0
654848.165,2,0,0,1.000,1.000,1.000,-90.00,180.00,-13.50,OPEN,0
654848.169,2,0,0,1.000,1.000,1.000,-90.00,180.00,-13.50,OPEN,0
654848.173,2,0,0,1.000,1.000,1.000,-90.00,180.00,-13.50,OPEN,0
654848.177,2,0,0,1.000,1.000,1.000,-90.00,180.00,-13.50,OPEN,0
654848.181,2,0,0,1.000,1.000,1.000,-90.00,180.00,-13.50,OPEN,0
654848.184,2,0,0,1.000,1.000,1.000,-90.00,180.00,-13.50,OPEN,0
654848.188,2,0,0,1.000,1.000,1.000,-90.00,180.00,-13.50,OPEN,1
654848.192,2,0,0,1.000,1.000,1.000,-90.00,180.00,-13.50,OPEN,0
654848.196,2,0,0,1.000,1.000,1.000,-90.00,180.00,-13.50,OPEN,0
654848.200,2,0,0,1.000,1.000,1.000,-90.00,180.00,-13.50,OPEN,0
654848.205,2,0,0,1.000,1.000,1.000,-90.00,180.00,-13.50,OPEN,0
654848.209,2,0,0,1.000,1.000,1.000,-90.00,180.00,-13.50,OPEN,0
654848.214,2,0,0,1.000,1.000,1.000,-90.00,180.00,-13.50,OPEN,0
654848.220,2,0,0,1.000,1.000,1.000,-90.00,180.00,-13.50,OPEN,0
654848.224,2,0,0,1.000,1.000,1.000,-90.00,180.00,-13.50,OPEN,0
654848.228,2,0,0,1.000,1.000,1.000,-90.00,180.00,-13.50,OPEN,0
654848.233,2,0,0,1.000,1.000,1.000,-90.00,180.00,-13.50,OPEN,0
654848.236,2,0,0,1.000,1.000,1.000,-90.00,180.00,-13.50,OPEN,0
654848.240,2,0,0,1.000,1.000,1.000,-90.00,180.00,-13.50,OPEN,0
654848.244,2,0,0,1.000,1.000,1.000,-90.00,180.00,-13.50,OPEN,0
654848.248,2,0,0,1.000,1.000,1.000,-90.00,180.00,-13.50,OPEN,0
654848.252,2,0,0,1.000,1.000,1.000,-90.00,180.00,-13.50,OPEN,0
654848.255,2,0,0,1.000,1.000,1.000,-90.00,180.00,-13.50,OPEN,0
654848.259,2,0,0,1.000,1.000,1.000,-90.00,180.00,-13.50,OPEN,0
654848.263,2,0,0,1.000,1.000,1.000,-90.00,180.00,-18.00,OPEN,0
654848.267,2,0,0,1.000,1.000,1.000,-90.00,180.00,-18.00,OPEN,0
654848.271,2,0,0,1.000,1.000,1.000,-90.00,180.00,-18.00,OPEN,0
654848.274,2,0,0,1.000,1.000,1.000,-90.00,180.00,-18.00,OPEN,0
654848.279,2,0,0,1.000,1.000,1.000,-90.00,180.00,-18.00,OPEN,0
654848.283,2,0,0,1.000,1.000,1.000,-90.00,180.00,-18.00,OPEN,0
654848.286,2,0,0,1.000,1.000,1.000,-90.00,180.00,-18.00,OPEN,0
654848.291,2,0,0,1.000,1.000,1.000,-90.00,180.00,-18.00,OPEN,1
654848.295,2,0,0,1.000,1.000,1.000,-90.00,180.00,-18.00,OPEN,0
654848.298,2,0,0,1.000,1.000,1.000,-90.00,180.00,-18.00,OPEN,0
654848.302,2,0,0,1.000,1.000,1.000,-90.00,180.00,-18.00,OPEN,0
654848.307,2,0,0,1.000,1.000,1.000,-90.00,180.00,-18.00,OPEN,0
654848.310,2,0,0,1.000,1.000,1.000,-90.00,180.00,-18.00,OPEN,0
654848.314,2,0,0,1.000,1.000,1.000,-90.00,180.00,-18.00,OPEN,0
654848.318,2,0,0,1.000,1.000,1.000,-90.00,180.00,-18.00,OPEN,0
654848.322,2,0,0,1.000,1.000,1.000,-90.00,180.00,-18.00,OPEN,0
654848.326,2,0,0,1.000,1.000,1.000,-90.00,180.00,-18.00,OPEN,0
654848.330,2,0,0,1.000,1.000,1.000,-90.00,180.00,-18.00,OPEN,0
654848.334,2,0,0,1.000,1.000,1.000,-90.00,180.00,-18.00,OPEN,0
654848.338,2,0,0,1.000,1.000,1.000,-90.00,180.00,-18.00,OPEN,0
654848.342,2,0,0,1.000,1.000,1.000,-90.00,180.00,-18.00,OPEN,0
654848.347,2,0,0,1.000,1.000,1.000,-90.00,180.00,-18.00,OPEN,0
654848.350,2,0,0,1.000,1.000,1.000,-90.00,180.00,-18.00,OPEN,0
654848.354,2,0,0,1.000,1.000,1.000,-90.00,180.00,-18.00,OPEN,0
654848.358,2,0,0,1.000,1.000,1.000,-90.00,180.00,-18.00,OPEN,0
654848.362,2,0,0,1.000,1.000,1.000,-90.00,180.00,-18.00,OPEN,0
654848.366,2,0,0,1.000,1.000,1.000,-90.00,180.00,-22.50,OPEN,0
654848.370,2,0,0,1.000,1.000,1.000,-90.00,180.00,-22.50,OPEN,0
654848.374,2,0,0,1.000,1.000,1.000,-90.00,180.00,-22.50,OPEN,0
654848.378,2,0,0,1.000,1.000,1.000,-90.00,180.00,-22.50,OPEN,0
654848.382,2,0,0,1.000,1.000,1.000,-90.00,180.00,-22.50,OPEN,0
654848.386,2,0,0,1.000,1.000,1.000,-90.00,180.00,-22.50,OPEN,0
654848.390,2,0,0,1.000,1.000,1.000,-90.00,180.00,-22.50,OPEN,0
654848.394,2,0,0,1.000,1.000,1.000,-90.00,180.00,-22.50,OPEN,1
654848.398,2,0,0,1.000,1.000,1.000,-90.00,180.00,-22.50,OPEN,0
654848.402,2,0,0,1.000,1.000,1.000,-90.00,180.00,-22.50,OPEN,0
654848.405,2,0,0,0.999,1.000,1.000,-90.00,180.00,-22.50,OPEN,0
654848.409,2,0,0,0.998,1.000,1.000,-90.00,180.00,-22.50,OPEN,0
654848.412,2,0,0,0.994,1.000,1.000,-90.00,180.00,-22.50,OPEN,0
654848.416,2,0,0,0.963,1.000,1.000,-90.00,180.00,-22.50,OPEN,0
654848.420,2,0,0,0.904,1.000,1.000,-90.00,180.00,-22.50,OPEN,0
654848.424,2,0,0,0.723,1.000,1.000,-90.00,180.00,-22.50,OPEN,0
654848.428,2,0,0,0.684,1.000,1.000,-90.00,180.00,-22.50,OPEN,0
654848.433,2,0,0,0.927,1.000,1.000,-90.00,180.00,-22.50,OPEN,0
654848.437,2,0,0,0.966,1.000,1.000,-90.00,180.00,-22.50,OPEN,0
654848.440,2,0,0,0.999,1.000,1.000,-90.00,180.00,-22.50,OPEN,0
654848.445,2,0,0,1.000,1.000,1.000,-90.00,180.00,-22.50,OPEN,0
654848.448,2,0,0,1.000,1.000,1.000,-90.00,180.00,-22.50,OPEN,0
654848.452,2,0,0,1.000,1.000,1.000,-90.00,180.00,-22.50,OPEN,0
654848.457,2,0,0,1.000,1.000,1.000,-90.00,180.00,-22.50,OPEN,0
654848.461,0,0,0,1.000,1.000,1.000,-90.00,180.00,-22.50,OPEN,0
654848.465,0,0,0,1.000,1.000,1.000,-90.00,180.00,-22.50,OPEN,0
654848.469,0,0,0,1.000,1.000,1.000,-90.00,180.00,-22.50,OPEN,0
654848.474,0,0,0,1.000,1.000,1.000,-90.00,180.00,-22.50,OPEN,0
654848.479,0,0,0,1.000,1.000,1.000,-90.00,180.00,-22.50,OPEN,0
654848.483,0,0,0,1.000,1.000,1.000,-90.00,180.00,-22.50,OPEN,0
654848.487,0,0,0,1.000,1.000,1.000,-90.00,180.00,-22.50,OPEN,0
654848.491,0,0,0,1.000,1.000,1.000,-90.00,180.00,-22.50,OPEN,0
654848.495,0,0,0,1.000,1.000,1.000,-90.00,180.00,-22.50,OPEN,0
654848.499,0,0,0,1.000,1.000,1.000,-90.00,180.00,-22.50,OPEN,0
654848.503,0,0,0,1.000,1.000,1.000,-90.00,180.00,-22.50,OPEN,0
654848.506,0,0,0,1.000,1.000,1.000,-90.00,180.00,-22.50,OPEN,0
654848.510,0,0,0,1.000,1.000,1.000,-90.00,180.00,-22.50,OPEN,0
654848.514,0,0,0,1.000,1.000,1.000,-90.00,180.00,-22.50,OPEN,0
654848.518,0,0,0,1.000,1.000,1.000,-90.00,180.00,-22.50,OPEN,0
654848.523,0,0,0,1.000,1.000,1.000,-90.00,180.00,-22.50,OPEN,0
654848.529,0,0,0,1.000,1.000,1.000,-90.00,180.00,-22.50,OPEN,0
654848.534,0,0,0,1.000,1.000,1.000,-90.00,180.00,-22.50,OPEN,0
654848.538,0,0,0,1.000,1.000,1.000,-90.00,180.00,-22.50,OPEN,0
654848.543,0,0,0,1.000,1.000,1.000,-90.00,180.00,-22.50,OPEN,0
654848.547,0,0,0,1.000,1.000,1.000,-90.00,180.00,-22.50,OPEN,0
654848.552,0,0,0,1.000,1.000,1.000,-90.00,180.00,-22.50,OPEN,0
654848.556,0,0,0,1.000,1.000,1.000,-90.00,180.00,-22.50,OPEN,0
654848.560,0,0,0,1.000,1.000,1.000,-90.00,180.00,-22.50,OPEN,0
654848.564,0,0,0,1.000,1.000,1.000,-90.00,180.00,-22.50,OPEN,0
654848.568,0,0,0,1.000,1.000,1.000,-90.00,180.00,-22.50,OPEN,0
654848.572,0,0,0,1.000,1.000,1.000,-90.00,180.00,-22.50,OPEN,0
654848.575,0,0,0,1.000,1.000,1.000,-90.00,180.00,-22.50,OPEN,0
654848.579,0,0,0,1.000,1.000,1.000,-90.00,180.00,-22.50,OPEN,0
654848.583,0,0,0,1.000,1.000,1.000,-90.00,180.00,-22.50,OPEN,0
654848.587,0,0,0,1.000,1.000,1.000,-90.00,180.00,-22.50,OPEN,0
654848.591,0,0,0,1.000,1.000,1.000,-90.00,180.00,-22.50,OPEN,0
654848.595,0,0,0,1.000,1.000,1.000,-90.00,180.00,-22.50,OPEN,0
654848.600,0,0,0,1.000,1.000,1.000,-90.00,180.00,-22.50,OPEN,0
654848.605,0,0,0,1.000,1.000,1.000,-90.00,180.00,-22.50,OPEN,0
654848.609,0,0,0,1.000,1.000,1.000,-90.00,180.00,-22.50,OPEN,0
654848.614,0,0,0,1.000,1.000,1.000,-90.00,180.00,-22.50,OPEN,0
654848.619,0,0,0,1.000,1.000,1.000,-90.00,180.00,-22.50,OPEN,0
654848.623,0,0,0,1.000,1.000,1.000,-90.00,180.00,-22.50,OPEN,0
654848.627,0,0,0,1.000,1.000,1.000,-90.00,180.00,-22.50,OPEN,0
654848.630,0,0,0,1.000,1.000,1.000,-90.00,180.00,-22.50,OPEN,0
654848.634,0,0,0,1.000,1.000,1.000,-90.00,180.00,-22.50,OPEN,0
654848.638,0,0,0,1.000,1.000,1.000,-90.00,180.00,-22.50,OPEN,0
654848.642,0,0,0,1.000,1.000,1.000,-90.00,180.00,-22.50,OPEN,0
654848.646,0,0,0,1.000,1.000,1.000,-90.00,180.00,-22.50,OPEN,0
654848.651,0,0,0,1.000,1.000,1.000,-90.00,180.00,-22.50,OPEN,0
654848.656,0,0,0,1.000,1.000,1.000,-90.00,180.00,-22.50,OPEN,0
654848.660,0,0,0,1.000,1.000,1.000,-90.00,180.00,-22.50,OPEN,0
654848.664,0,0,0,1.000,1.000,1.000,-90.00,180.00,-22.50,OPEN,0
654848.669,0,0,0,1.000,1.000,1.000,-90.00,180.00,-22.50,OPEN,0
654848.674,0,0,0,1.000,1.000,1.000,-90.00,180.00,-22.50,OPEN,0
654848.678,0,0,0,1.000,1.000,1.000,-90.00,180.00,-22.50,OPEN,0
654848.682,0,0,0,1.000,1.000,1.000,-90.00,180.00,-22.50,OPEN,0
654848.686,0,0,0,1.000,1.000,1.000,-90.00,180.00,-22.50,OPEN,0
654848.690,0,0,0,1.000,1.000,1.000,-90.00,180.00,-22.50,OPEN,0
654848.694,0,0,0,1.000,1.000,1.000,-90.00,180.00,-22.50,OPEN,0
654848.697,0,0,0,1.000,1.000,1.000,-90.00,180.00,-22.50,OPEN,0
654848.701,0,0,0,1.000,1.000,1.000,-90.00,180.00,-22.50,OPEN,0
654848.705,0,0,0,1.000,1.000,1.000,-90.00,180.00,-22.50,OPEN,0
654848.709,0,0,0,1.000,1.000,1.000,-90.00,180.00,-22.50,OPEN,0
654848.713,0,0,0,1.000,1.000,1.000,-90.00,180.00,-22.50,OPEN,0
654848.717,0,0,0,1.000,1.000,1.000,-90.00,180.00,-22.50,OPEN,0
654848.721,0,0,0,1.000,1.000,1.000,-90.00,180.00,-22.50,OPEN,0
654848.725,0,0,0,1.000,1.000,1.000,-90.00,180.00,-22.50,OPEN,0
654848.729,0,0,0,1.000,1.000,1.000,-90.00,180.00,-22.50,OPEN,0
654848.734,0,0,0,1.000,1.000,1.000,-90.00,180.00,-22.50,OPEN,0
654848.738,0,0,0,1.000,1.000,1.000,-90.00,180.00,-22.50,OPEN,0
654848.742,0,0,0,1.000,1.000,1.000,-90.00,180.00,-22.50,OPEN,0
654848.746,0,0,0,1.000,1.000,1.000,-90.00,180.00,-22.50,OPEN,0
654848.750,0,0,0,1.000,1.000,1.000,-90.00,180.00,-22.50,OPEN,0
654848.753,0,0,0,1.000,1.000,1.000,-90.00,180.00,-22.50,OPEN,0
654848.757,0,0,0,1.000,1.000,1.000,-90.00,180.00,-22.50,OPEN,0
654848.761,0,0,0,1.000,1.000,1.000,-90.00,180.00,-22.50,OPEN,0
654848.766,0,0,0,1.000,1.000,1.000,-90.00,180.00,-22.50,OPEN,0
654848.771,0,0,0,1.000,1.000,1.000,-90.00,180.00,-22.50,OPEN,0
654848.774,0,0,0,1.000,1.000,1.000,-90.00,180.00,-22.50,OPEN,0
654848.778,0,0,0,1.000,1.000,1.000,-90.00,180.00,-22.50,OPEN,0
654848.783,0,0,0,1.000,1.000,1.000,-90.00,180.00,-22.50,OPEN,0
654848.787,0,0,0,1.000,1.000,1.000,-90.00,180.00,-22.50,OPEN,0
654848.791,0,0,0,1.000,1.000,1.000,-90.00,180.00,-22.50,OPEN,0
654848.796,0,0,0,1.000,1.000,1.000,-90.00,180.00,-22.50,OPEN,0
654848.800,0,0,0,1.000,1.000,1.000,-90.00,180.00,-22.50,OPEN,0
654848.805,0,0,0,1.000,1.000,1.000,-90.00,180.00,-22.50,OPEN,0
654848.809,0,0,0,1.000,1.000,1.000,-90.00,180.00,-22.50,OPEN,0
654848.813,0,0,0,1.000,1.000,1.000,-90.00,180.00,-22.50,OPEN,0
654848.817,0,0,0,1.000,1.000,1.000,-90.00,180.00,-22.50,OPEN,0
654848.822,0,0,0,1.000,1.000,1.000,-90.00,180.00,-22.50,OPEN,0
654848.826,0,0,0,1.000,1.000,1.000,-90.00,180.00,-22.50,OPEN,0
654848.830,0,0,0,1.000,1.000,1.000,-90.00,180.00,-22.50,OPEN,0
654848.834,0,0,0,1.000,1.000,1.000,-90.00,180.00,-22.50,OPEN,0
654848.838,0,0,0,1.000,1.000,1.000,-90.00,180.00,-22.50,OPEN,0
654848.842,0,0,0,1.000,1.000,1.000,-90.00,180.00,-22.50,OPEN,0
654848.846,0,0,0,1.000,1.000,1.000,-90.00,180.00,-22.50,OPEN,0
654848.850,0,0,0,1.000,1.000,1.000,-90.00,180.00,-22.50,OPEN,0
654848.854,0,0,0,1.000,1.000,1.000,-90.00,180.00,-22.50,OPEN,0
654848.858,0,0,0,1.000,1.000,1.000,-90.00,180.00,-22.50,OPEN,0
654848.862,0,0,0,1.000,1.000,1.000,-90.00,180.00,-22.50,OPEN,0
654848.866,0,0,0,1.000,1.000,1.000,-90.00,180.00,-22.50,OPEN,0
654848.870,0,0,0,1.000,1.000,1.000,-90.00,180.00,-22.50,OPEN,0
654848.874,0,0,0,1.000,1.000,1.000,-90.00,180.00,-22.50,OPEN,0
654848.878,0,0,0,1.000,1.000,1.000,-90.00,180.00,-22.50,OPEN,0
654848.882,0,0,0,1.000,1.000,1.000,-90.00,180.00,-22.50,OPEN,0
654848.886,0,0,0,0.999,1.000,1.000,-90.00,180.00,-22.50,OPEN,0
654848.889,0,0,0,0.997,1.000,1.000,-90.00,180.00,-22.50,OPEN,0
654848.893,0,0,0,0.997,1.000,1.000,-90.00,180.00,-22.50,OPEN,0
654848.896,0,0,0,0.991,1.000,1.000,-90.00,180.00,-22.50,OPEN,0
654848.900,0,0,0,0.989,1.000,1.000,-90.00,180.00,-22.50,OPEN,0
654848.904,0,0,0,0.999,1.000,1.000,-90.00,180.00,-22.50,OPEN,0
654848.907,0,0,0,1.000,1.000,1.000,-90.00,180.00,-22.50,OPEN,0
654848.911,0,0,0,1.000,1.000,1.000,-90.00,180.00,-22.50,OPEN,0
654848.915,0,0,0,1.000,1.000,1.000,-90.00,180.00,-22.50,OPEN,0
654848.919,0,0,0,1.000,1.000,1.000,-90.00,180.00,-22.50,OPEN,0
654848.923,0,0,0,1.000,1.000,1.000,-90.00,180.00,-22.50,OPEN,0
654848.927,0,0,0,1.000,1.000,1.000,-90.00,180.00,-22.50,OPEN,0
654848.931,0,0,0,1.000,1.000,1.000,-90.00,180.00,-22.50,OPEN,0
654848.934,0,0,0,1.000,1.000,1.000,-90.00,180.00,-22.50,OPEN,0
654848.938,0,0,0,1.000,1.000,1.000,-90.00,180.00,-22.50,OPEN,0
654848.942,0,0,0,1.000,1.000,1.000,-90.00,180.00,-22.50,OPEN,0
654848.945,0,0,0,1.000,1.000,1.000,-90.00,180.00,-22.50,OPEN,0
654848.949,0,0,0,1.000,1.000,1.000,-90.00,180.00,-22.50,OPEN,0
654848.953,0,0,0,1.000,1.000,1.000,-90.00,180.00,-22.50,OPEN,0
654848.956,0,0,0,1.000,1.000,1.000,-90.00,180.00,-22.50,OPEN,0
654848.960,0,0,0,1.000,1.000,1.000,-90.00,180.00,-22.50,OPEN,0
654848.964,0,0,0,1.000,1.000,1.000,-90.00,180.00,-22.50,OPEN,0
654848.968,0,0,0,1.000,1.000,1.000,-90.00,180.00,-22.50,OPEN,0
654848.971,0,0,0,1.000,1.000,1.000,-90.00,180.00,-22.50,OPEN,0
654848.975,0,0,0,1.000,1.000,1.000,-90.00,180.00,-22.50,OPEN,0
654848.979,0,0,0,1.000,1.000,1.000,-90.00,180.00,-22.50,OPEN,0
654848.983,0,0,0,1.000,1.000,1.000,-90.00,180.00,-22.50,OPEN,0
654848.987,0,0,0,1.000,1.000,1.000,-90.00,180.00,-22.50,OPEN,0
654848.990,0,0,0,1.000,1.000,1.000,-90.00,180.00,-22.50,OPEN,0
654848.994,0,0,0,1.000,1.000,1.000,-90.00,180.00,-22.50,OPEN,0
654848.998,0,0,0,1.000,1.000,1.000,-90.00,180.00,-22.50,OPEN,0
654849.001,0,0,0,1.000,1.000,1.000,-90.00,180.00,-22.50,OPEN,0
654849.005,0,0,0,0.863,1.000,1.000,-90.00,180.00,-22.50,OPEN,0
654849.009,0,0,0,0.956,1.000,1.000,-90.00,180.00,-22.50,OPEN,0
654849.014,0,0,0,0.993,1.000,1.000,-90.00,180.00,-22.50,OPEN,0
654849.021,0,0,0,0.993,1.000,1.000,-90.00,180.00,-22.50,OPEN,0
654849.027,0,0,0,0.970,1.000,1.000,-90.00,180.00,-22.50,OPEN,0
654849.033,0,0,0,0.616,1.000,1.000,-90.00,180.00,-22.50,OPEN,0
654849.039,0,0,0,0.909,1.000,1.000,-90.00,180.00,-22.50,OPEN,0
654849.045,0,0,0,0.990,1.000,1.000,-90.00,180.00,-22.50,OPEN,0
654849.051,0,0,0,0.994,1.000,1.000,-90.00,180.00,-22.50,OPEN,0
654849.057,0,0,0,0.995,1.000,1.000,-90.00,180.00,-22.50,OPEN,0
654849.063,0,0,0,0.996,1.000,1.000,-90.00,180.00,-22.50,OPEN,0
654849.067,0,0,0,0.995,1.000,1.000,-90.00,180.00,-22.50,OPEN,0
654849.071,0,0,0,0.993,1.000,1.000,-90.00,180.00,-22.50,OPEN,0
654849.075,3,0,0,0.990,1.000,1.000,-90.00,180.00,-22.50,CLOSED,0
654849.080,3,0,0,0.985,1.000,1.000,-90.00,180.00,-22.50,CLOSED,0
654849.083,3,0,0,0.983,1.000,1.000,-90.00,180.00,-22.50,CLOSED,0
654849.087,3,0,0,0.985,1.000,1.000,-90.00,180.00,-22.50,CLOSED,0
654849.091,3,0,0,0.989,1.000,1.000,-90.00,180.00,-22.50,CLOSED,0
654849.095,3,0,0,0.995,1.000,1.000,-90.00,180.00,-22.50,CLOSED,0
654849.099,3,0,0,0.997,1.000,1.000,-90.00,180.00,-22.50,CLOSED,0
654849.104,3,0,0,0.999,1.000,1.000,-90.00,180.00,-22.50,CLOSED,0
654849.109,3,0,0,0.999,1.000,1.000,-90.00,180.00,-22.50,CLOSED,0
654849.114,3,0,0,1.000,1.000,1.000,-90.00,180.00,-22.50,CLOSED,0
654849.119,3,0,0,1.000,1.000,1.000,-90.00,180.00,-22.50,CLOSED,0
654849.124,3,0,0,1.000,1.000,1.000,-90.00,180.00,-22.50,CLOSED,0
654849.129,3,0,0,1.000,1.000,1.000,-90.00,180.00,-22.50,CLOSED,0
654849.133,3,0,0,1.000,1.000,1.000,-90.00,180.00,-22.50,CLOSED,0
654849.138,3,0,0,1.000,1.000,1.000,-90.00,180.00,-22.50,CLOSED,0
654849.142,3,0,0,1.000,1.000,1.000,-90.00,180.00,-22.50,CLOSED,0
654849.146,3,0,0,1.000,1.000,1.000,-90.00,180.00,-22.50,CLOSED,0
654849.151,3,0,0,1.000,1.000,1.000,-90.00,180.00,-22.50,CLOSED,0
654849.155,3,0,0,1.000,1.000,1.000,-90.00,180.00,-22.50,CLOSED,0
654849.158,3,0,0,1.000,1.000,1.000,-90.00,180.00,-22.50,CLOSED,0
654849.163,3,0,0,1.000,1.000,1.000,-90.00,180.00,-22.50,CLOSED,0
654849.166,3,0,0,1.000,1.000,1.000,-90.00,180.00,-22.50,CLOSED,0
654849.171,3,0,0,1.000,1.000,1.000,-90.00,180.00,-22.50,CLOSED,0
654849.174,3,0,0,1.000,1.000,1.000,-90.00,180.00,-22.50,CLOSED,0
654849.179,3,0,0,1.000,1.000,1.000,-90.00,180.00,-22.50,CLOSED,0
654849.183,3,0,0,0.999,1.000,1.000,-90.00,180.00,-22.50,CLOSED,0
654849.186,3,0,0,0.997,1.000,1.000,-90.00,180.00,-22.50,CLOSED,0
654849.190,3,0,0,0.992,1.000,1.000,-90.00,180.00,-22.50,CLOSED,0
654849.194,3,0,0,0.987,1.000,1.000,-90.00,180.00,-22.50,CLOSED,0
654849.198,3,0,0,0.985,1.000,1.000,-90.00,180.00,-22.50,CLOSED,0
654849.202,3,0,0,0.989,1.000,1.000,-90.00,180.00,-22.50,CLOSED,0
654849.207,3,0,0,0.993,1.000,1.000,-90.00,180.00,-22.50,CLOSED,0
654849.212,3,0,0,0.996,1.000,1.000,-90.00,180.00,-22.50,CLOSED,0
654849.217,3,0,0,0.997,1.000,1.000,-90.00,180.00,-22.50,CLOSED,0
654849.222,3,0,0,0.998,1.000,1.000,-90.00,180.00,-22.50,CLOSED,0
654849.227,3,0,0,0.998,1.000,1.000,-90.00,180.00,-22.50,CLOSED,0
654849.232,3,0,0,0.999,1.000,1.000,-90.00,180.00,-22.50,CLOSED,0
654849.237,3,0,0,0.999,1.000,1.000,-90.00,180.00,-22.50,CLOSED,0
654849.242,3,0,0,0.999,1.000,1.000,-90.00,180.00,-22.50,CLOSED,0
654849.247,3,0,0,1.000,1.000,1.000,-90.00,180.00,-22.50,CLOSED,0
654849.251,3,0,0,1.000,1.000,1.000,-90.00,180.00,-22.50,CLOSED,0
654849.255,3,0,0,1.000,1.000,1.000,-90.00,180.00,-22.50,CLOSED,0
654849.260,3,0,0,1.000,1.000,1.000,-90.00,180.00,-22.50,CLOSED,0
654849.264,3,0,0,1.000,1.000,1.000,-90.00,180.00,-22.50,CLOSED,0
654849.268,3,0,0,1.000,1.000,1.000,-90.00,180.00,-22.50,CLOSED,0
654849.272,3,0,0,1.000,1.000,1.000,-90.00,180.00,-22.50,CLOSED,0
654849.276,3,0,0,1.000,1.000,1.000,-90.00,180.00,-22.50,CLOSED,0
654849.280,3,0,0,1.000,1.000,1.000,-90.00,180.00,-22.50,CLOSED,0
654849.284,3,0,0,1.000,1.000,1.000,-90.00,180.00,-22.50,CLOSED,0
654849.288,3,0,0,1.000,1.000,1.000,-90.00,180.00,-22.50,CLOSED,0
654849.293,3,0,0,1.000,1.000,1.000,-90.00,180.00,-22.50,CLOSED,0
654849.298,3,0,0,1.000,1.000,1.000,-90.00,180.00,-22.50,CLOSED,0
654849.302,3,0,0,1.000,1.000,1.000,-90.00,180.00,-22.50,CLOSED,0
654849.307,3,0,0,1.000,1.000,1.000,-90.00,180.00,-22.50,CLOSED,0
654849.313,3,0,0,1.000,1.000,1.000,-90.00,180.00,-22.50,CLOSED,0
654849.317,3,0,0,1.000,1.000,1.000,-90.00,180.00,-22.50,CLOSED,0
654849.322,3,0,0,1.000,1.000,1.000,-90.00,180.00,-22.50,CLOSED,0
654849.326,3,0,0,1.000,1.000,1.000,-90.00,180.00,-22.50,CLOSED,0
654849.330,3,0,0,1.000,1.000,1.000,-90.00,180.00,-22.50,CLOSED,0
654849.334,3,0,0,1.000,1.000,1.000,-90.00,180.00,-22.50,CLOSED,0
654849.338,3,0,0,1.000,1.000,1.000,-90.00,180.00,-22.50,CLOSED,0
654849.342,3,0,0,1.000,1.000,1.000,-90.00,180.00,-22.50,CLOSED,0
654849.347,3,0,0,1.000,1.000,1.000,-90.00,180.00,-22.50,CLOSED,0
654849.351,3,0,0,1.000,1.000,1.000,-90.00,180.00,-22.50,CLOSED,0
654849.355,3,0,0,1.000,1.000,1.000,-90.00,180.00,-22.50,CLOSED,0
654849.359,3,0,0,1.000,1.000,1.000,-90.00,180.00,-22.50,CLOSED,0
654849.363,3,0,0,1.000,1.000,1.000,-90.00,180.00,-22.50,CLOSED,0
654849.368,3,0,0,1.000,1.000,1.000,-90.00,180.00,-22.50,CLOSED,0
654849.372,3,0,0,1.000,1.000,1.000,-90.00,180.00,-22.50,CLOSED,0
654849.377,3,0,0,1.000,1.000,1.000,-90.00,180.00,-22.50,CLOSED,0
654849.382,3,0,0,1.000,1.000,1.000,-90.00,180.00,-22.50,CLOSED,0
654849.386,3,0,0,1.000,1.000,1.000,-90.00,180.00,-22.50,CLOSED,0
654849.390,3,0,0,1.000,1.000,1.000,-90.00,180.00,-22.50,CLOSED,0
654849.394,3,0,0,1.000,1.000,1.000,-90.00,180.00,-22.50,CLOSED,0
654849.397,3,0,0,1.000,1.000,1.000,-90.00,180.00,-22.50,CLOSED,0
654849.402,3,0,0,1.000,1.000,1.000,-90.00,180.00,-22.50,CLOSED,0
654849.406,3,0,0,1.000,1.000,1.000,-90.00,180.00,-22.50,CLOSED,0
654849.410,3,0,0,1.000,1.000,1.000,-90.00,180.00,-22.50,CLOSED,0
654849.414,3,0,0,1.000,1.000,1.000,-90.00,180.00,-22.50,CLOSED,0
654849.418,3,0,0,1.000,1.000,1.000,-90.00,180.00,-22.50,CLOSED,0
654849.422,3,0,0,1.000,1.000,1.000,-90.00,180.00,-22.50,CLOSED,0
654849.426,3,0,0,1.000,1.000,1.000,-90.00,180.00,-22.50,CLOSED,0
654849.429,3,0,0,1.000,1.000,1.000,-90.00,180.00,-22.50,CLOSED,0
654849.434,3,0,0,1.000,1.000,1.000,-90.00,180.00,-22.50,CLOSED,0
654849.437,3,0,0,1.000,1.000,1.000,-90.00,180.00,-22.50,CLOSED,0
654849.441,3,0,0,1.000,1.000,1.000,-90.00,180.00,-22.50,CLOSED,0
654849.445,3,0,0,1.000,1.000,1.000,-90.00,180.00,-22.50,CLOSED,0
654849.449,3,0,0,1.000,1.000,1.000,-90.00,180.00,-22.50,CLOSED,0
654849.453,3,0,0,1.000,1.000,1.000,-90.00,180.00,-22.50,CLOSED,0
654849.458,3,0,0,1.000,1.000,1.000,-90.00,180.00,-22.50,CLOSED,0
654849.461,3,0,0,1.000,1.000,1.000,-90.00,180.00,-22.50,CLOSED,0
654849.465,3,0,0,1.000,1.000,1.000,-90.00,180.00,-22.50,CLOSED,0
654849.469,3,0,0,1.000,1.000,1.000,-90.00,180.00,-22.50,CLOSED,0
654849.473,3,0,0,0.999,1.000,1.000,-90.00,180.00,-22.50,CLOSED,0
654849.476,3,0,0,0.999,1.000,1.000,-90.00,180.00,-22.50,CLOSED,0
654849.480,3,0,0,0.999,1.000,1.000,-90.00,180.00,-22.50,CLOSED,0
654849.484,3,0,0,1.000,1.000,1.000,-90.00,180.00,-22.50,CLOSED,0
654849.487,3,0,0,1.000,1.000,1.000,-90.00,180.00,-22.50,CLOSED,0
654849.491,3,0,0,1.000,1.000,1.000,-90.00,180.00,-22.50,CLOSED,0
654849.495,3,0,0,1.000,1.000,1.000,-90.00,180.00,-22.50,CLOSED,0
654849.498,3,0,0,1.000,1.000,1.000,-90.00,180.00,-22.50,CLOSED,0
654849.502,3,0,0,1.000,1.000,1.000,-90.00,180.00,-22.50,CLOSED,0
654849.506,3,0,0,1.000,1.000,1.000,-90.00,180.00,-22.50,CLOSED,0
654849.510,3,0,0,1.000,1.000,1.000,-90.00,180.00,-22.50,CLOSED,0
654849.515,3,0,0,1.000,1.000,1.000,-90.00,180.00,-22.50,CLOSED,0
654849.519,3,0,0,1.000,1.000,1.000,-90.00,180.00,-22.50,CLOSED,0
654849.523,3,0,0,1.000,1.000,1.000,-90.00,180.00,-22.50,CLOSED,0
654849.527,3,0,0,1.000,1.000,1.000,-90.00,180.00,-22.50,CLOSED,0
654849.531,3,0,0,1.000,1.000,1.000,-90.00,180.00,-22.50,CLOSED,0
654849.535,3,0,0,1.000,1.000,1.000,-90.00,180.00,-22.50,CLOSED,0
654849.539,3,0,0,1.000,1.000,1.000,-90.00,180.00,-22.50,CLOSED,0
654849.543,3,0,0,1.000,1.000,1.000,-90.00,180.00,-22.50,CLOSED,0
654849.547,3,0,0,0.984,1.000,1.000,-90.00,180.00,-22.50,CLOSED,0
654849.551,3,0,0,0.751,1.000,1.000,-90.00,180.00,-22.50,CLOSED,0
654849.555,3,0,0,0.676,1.000,1.000,-90.00,180.00,-22.50,CLOSED,0
654849.559,3,0,0,0.897,1.000,1.000,-90.00,180.00,-22.50,CLOSED,0
654849.563,3,0,0,0.933,1.000,1.000,-90.00,180.00,-22.50,CLOSED,0
654849.568,3,0,0,0.995,1.000,1.000,-90.00,180.00,-22.50,CLOSED,0
654849.573,3,0,0,1.000,1.000,1.000,-90.00,180.00,-22.50,CLOSED,0
654849.576,3,0,0,1.000,1.000,1.000,-90.00,180.00,-22.50,CLOSED,0
654849.580,3,0,0,1.000,1.000,1.000,-90.00,180.00,-22.50,CLOSED,0
654849.584,3,0,0,1.000,1.000,1.000,-90.00,180.00,-22.50,CLOSED,0
654849.587,0,0,0,1.000,1.000,1.000,-90.00,180.00,-22.50,CLOSED,0
654849.591,0,0,0,1.000,1.000,1.000,-90.00,180.00,-22.50,CLOSED,0
654849.595,0,0,0,1.000,1.000,1.000,-90.00,180.00,-22.50,CLOSED,0
654849.599,0,0,0,1.000,1.000,1.000,-90.00,180.00,-22.50,CLOSED,0
654849.603,0,0,0,1.000,1.000,1.000,-90.00,180.00,-22.50,CLOSED,0
654849.607,0,0,0,1.000,1.000,1.000,-90.00,180.00,-22.50,CLOSED,0
654849.611,0,0,0,1.000,1.000,1.000,-90.00,180.00,-22.50,CLOSED,0
654849.616,0,0,0,1.000,1.000,1.000,-90.00,180.00,-22.50,CLOSED,0
654849.620,0,0,0,1.000,1.000,1.000,-90.00,180.00,-22.50,CLOSED,0
654849.625,0,0,0,1.000,1.000,1.000,-90.00,180.00,-22.50,CLOSED,0
654849.629,0,0,0,1.000,1.000,1.000,-90.00,180.00,-22.50,CLOSED,0
654849.634,0,0,0,1.000,1.000,1.000,-90.00,180.00,-22.50,CLOSED,0
654849.638,0,0,0,1.000,1.000,1.000,-90.00,180.00,-22.50,CLOSED,0
654849.642,0,0,0,1.000,1.000,1.000,-90.00,180.00,-22.50,CLOSED,0
654849.646,0,0,0,1.000,1.000,1.000,-90.00,180.00,-22.50,CLOSED,0
654849.650,0,0,0,1.000,1.000,1.000,-90.00,180.00,-22.50,CLOSED,0
654849.654,0,0,0,1.000,1.000,1.000,-90.00,180.00,-22.50,CLOSED,0
654849.658,0,0,0,1.000,1.000,1.000,-90.00,180.00,-22.50,CLOSED,0
654849.661,0,0,0,1.000,1.000,1.000,-90.00,180.00,-22.50,CLOSED,0
654849.665,0,0,0,1.000,1.000,1.000,-90.00,180.00,-22.50,CLOSED,0
654849.668,0,0,0,1.000,1.000,1.000,-90.00,180.00,-22.50,CLOSED,0
654849.672,0,0,0,1.000,1.000,1.000,-90.00,180.00,-22.50,CLOSED,0
654849.676,0,0,0,1.000,1.000,1.000,-90.00,180.00,-22.50,CLOSED,0
654849.684,0,0,0,1.000,1.000,1.000,-90.00,180.00,-22.50,CLOSED,0
654849.692,0,0,0,1.000,1.000,1.000,-90.00,180.00,-22.50,CLOSED,0
654849.700,0,0,0,1.000,1.000,1.000,-90.00,180.00,-22.50,CLOSED,0
654849.707,0,0,0,1.000,1.000,1.000,-90.00,180.00,-22.50,CLOSED,0
654849.713,0,0,0,1.000,1.000,1.000,-90.00,180.00,-22.50,CLOSED,0
654849.718,0,0,0,1.000,1.000,1.000,-90.00,180.00,-22.50,CLOSED,0
654849.722,0,0,0,1.000,1.000,1.000,-90.00,180.00,-22.50,CLOSED,0
654849.727,0,0,0,1.000,1.000,1.000,-90.00,180.00,-22.50,CLOSED,0
654849.732,0,0,0,1.000,1.000,1.000,-90.00,180.00,-22.50,CLOSED,0
654849.735,0,0,0,1.000,1.000,1.000,-90.00,180.00,-22.50,CLOSED,0
654849.739,0,0,0,1.000,1.000,1.000,-90.00,180.00,-22.50,CLOSED,0
654849.743,0,0,0,1.000,1.000,1.000,-90.00,180.00,-22.50,CLOSED,0
654849.747,0,0,0,1.000,1.000,1.000,-90.00,180.00,-22.50,CLOSED,0
654849.750,0,0,0,1.000,1.000,1.000,-90.00,180.00,-22.50,CLOSED,0
654849.754,0,0,0,1.000,1.000,1.000,-90.00,180.00,-22.50,CLOSED,0
654849.758,0,0,0,1.000,1.000,1.000,-90.00,180.00,-22.50,CLOSED,0
654849.762,0,0,0,1.000,1.000,1.000,-90.00,180.00,-22.50,CLOSED,0
654849.766,0,0,0,1.000,1.000,1.000,-90.00,180.00,-22.50,CLOSED,0
654849.770,0,0,0,1.000,1.000,1.000,-90.00,180.00,-22.50,CLOSED,0
654849.773,0,0,0,1.000,1.000,1.000,-90.00,180.00,-22.50,CLOSED,0
654849.777,0,0,0,1.000,1.000,1.000,-90.00,180.00,-22.50,CLOSED,0
654849.782,0,0,0,1.000,1.000,1.000,-90.00,180.00,-22.50,CLOSED,0
654849.786,0,0,0,1.000,1.000,1.000,-90.00,180.00,-22.50,CLOSED,0
654849.790,0,0,0,1.000,1.000,1.000,-90.00,180.00,-22.50,CLOSED,0
654849.795,0,0,0,1.000,1.000,1.000,-90.00,180.00,-22.50,CLOSED,0
654849.799,0,0,0,1.000,1.000,1.000,-90.00,180.00,-22.50,CLOSED,0
654849.803,0,0,0,1.000,1.000,1.000,-90.00,180.00,-22.50,CLOSED,0
654849.807,0,0,0,1.000,1.000,1.000,-90.00,180.00,-22.50,CLOSED,0
654849.812,0,0,0,1.000,1.000,1.000,-90.00,180.00,-22.50,CLOSED,0
654849.816,0,0,0,1.000,1.000,1.000,-90.00,180.00,-22.50,CLOSED,0
654849.821,0,0,0,1.000,1.000,1.000,-90.00,180.00,-22.50,CLOSED,0
654849.827,0,0,0,1.000,1.000,1.000,-90.00,180.00,-22.50,CLOSED,0
654849.833,0,0,0,1.000,1.000,1.000,-90.00,180.00,-22.50,CLOSED,0
654849.839,0,0,0,1.000,1.000,1.000,-90.00,180.00,-22.50,CLOSED,0
654849.846,0,0,0,1.000,1.000,1.000,-90.00,180.00,-22.50,CLOSED,0
654849.852,0,0,0,1.000,1.000,1.000,-90.00,180.00,-22.50,CLOSED,0
654849.858,0,0,0,1.000,1.000,1.000,-90.00,180.00,-22.50,CLOSED,0
654849.863,0,0,0,1.000,1.000,1.000,-90.00,180.00,-22.50,CLOSED,0
654849.868,0,0,0,1.000,1.000,1.000,-90.00,180.00,-22.50,CLOSED,0
654849.873,0,0,0,1.000,1.000,1.000,-90.00,180.00,-22.50,CLOSED,0
654849.878,0,0,0,1.000,1.000,1.000,-90.00,180.00,-22.50,CLOSED,0
654849.882,0,0,0,1.000,1.000,1.000,-90.00,180.00,-22.50,CLOSED,0
654849.887,0,0,0,1.000,1.000,1.000,-90.00,180.00,-22.50,CLOSED,0
654849.891,0,0,0,1.000,1.000,1.000,-90.00,180.00,-22.50,CLOSED,0
654849.895,0,0,0,1.000,1.000,1.000,-90.00,180.00,-22.50,CLOSED,0
654849.899,0,0,0,1.000,1.000,1.000,-90.00,180.00,-22.50,CLOSED,0
654849.903,0,0,0,1.000,1.000,1.000,-90.00,180.00,-22.50,CLOSED,0
654849.907,0,0,0,1.000,1.000,1.000,-90.00,180.00,-22.50,CLOSED,0
654849.911,0,0,0,1.000,1.000,1.000,-90.00,180.00,-22.50,CLOSED,0
654849.915,0,0,0,1.000,1.000,1.000,-90.00,180.00,-22.50,CLOSED,0
654849.919,0,0,0,1.000,1.000,1.000,-90.00,180.00,-22.50,CLOSED,0
654849.923,0,0,0,1.000,1.000,1.000,-90.00,180.00,-22.50,CLOSED,0
654849.927,0,0,0,1.000,1.000,1.000,-90.00,180.00,-22.50,CLOSED,0
654849.930,0,0,0,1.000,1.000,1.000,-90.00,180.00,-22.50,CLOSED,0
654849.935,0,0,0,1.000,1.000,1.000,-90.00,180.00,-22.50,CLOSED,0
654849.938,0,0,0,1.000,1.000,1.000,-90.00,180.00,-22.50,CLOSED,0
654849.942,0,0,0,1.000,1.000,1.000,-90.00,180.00,-22.50,CLOSED,0
654849.946,0,0,0,1.000,1.000,1.000,-90.00,180.00,-22.50,CLOSED,0
654849.950,0,0,0,1.000,1.000,1.000,-90.00,180.00,-22.50,CLOSED,0
654849.953,0,0,0,1.000,1.000,1.000,-90.00,180.00,-22.50,CLOSED,0
654849.957,0,0,0,1.000,1.000,1.000,-90.00,180.00,-22.50,CLOSED,0
654849.961,0,0,0,1.000,1.000,1.000,-90.00,180.00,-22.50,CLOSED,0
654849.965,0,0,0,1.000,1.000,1.000,-90.00,180.00,-22.50,CLOSED,0
654849.969,0,0,0,1.000,1.000,1.000,-90.00,180.00,-22.50,CLOSED,0
654849.974,0,0,0,1.000,1.000,1.000,-90.00,180.00,-22.50,CLOSED,0
654849.978,0,0,0,1.000,1.000,1.000,-90.00,180.00,-22.50,CLOSED,0
654849.982,0,0,0,1.000,1.000,1.000,-90.00,180.00,-22.50,CLOSED,0
654849.986,0,0,0,1.000,1.000,1.000,-90.00,180.00,-22.50,CLOSED,0
654849.990,0,0,0,1.000,1.000,1.000,-90.00,180.00,-22.50,CLOSED,0
654849.994,0,0,0,1.000,1.000,1.000,-90.00,180.00,-22.50,CLOSED,0
654849.998,0,0,0,1.000,1.000,1.000,-90.00,180.00,-22.50,CLOSED,0
654850.003,0,0,0,1.000,1.000,1.000,-90.00,180.00,-22.50,CLOSED,0
654850.009,0,0,0,1.000,1.000,1.000,-90.00,180.00,-22.50,CLOSED,0
654850.014,0,0,0,1.000,1.000,1.000,-90.00,180.00,-22.50,CLOSED,0
654850.019,0,0,0,1.000,1.000,1.000,-90.00,180.00,-22.50,CLOSED,0
654850.023,0,0,0,1.000,1.000,1.000,-90.00,180.00,-22.50,CLOSED,0
654850.029,0,0,0,1.000,1.000,1.000,-90.00,180.00,-22.50,CLOSED,0
654850.034,0,0,0,1.000,1.000,1.000,-90.00,180.00,-22.50,CLOSED,0
654850.038,0,0,0,1.000,1.000,1.000,-90.00,180.00,-22.50,CLOSED,0
654850.043,0,0,0,1.000,1.000,1.000,-90.00,180.00,-22.50,CLOSED,0
654850.048,0,0,0,1.000,1.000,1.000,-90.00,180.00,-22.50,CLOSED,0
654850.053,0,0,0,1.000,1.000,1.000,-90.00,180.00,-22.50,CLOSED,0
654850.057,0,0,0,1.000,1.000,1.000,-90.00,180.00,-22.50,CLOSED,0
654850.061,0,0,0,1.000,1.000,1.000,-90.00,180.00,-22.50,CLOSED,0
654850.065,0,0,0,1.000,1.000,1.000,-90.00,180.00,-22.50,CLOSED,0
654850.070,0,0,0,1.000,1.000,1.000,-90.00,180.00,-22.50,CLOSED,0
654850.074,0,0,0,1.000,1.000,1.000,-90.00,180.00,-22.50,CLOSED,0
654850.079,0,0,0,1.000,1.000,1.000,-90.00,180.00,-22.50,CLOSED,0
654850.083,0,0,0,1.000,1.000,1.000,-90.00,180.00,-22.50,CLOSED,0
654850.087,0,0,0,1.000,1.000,1.000,-90.00,180.00,-22.50,CLOSED,0
654850.091,0,0,0,1.000,1.000,1.000,-90.00,180.00,-22.50,CLOSED,0
654850.095,0,0,0,1.000,1.000,1.000,-90.00,180.00,-22.50,CLOSED,0
654850.099,0,0,0,1.000,1.000,1.000,-90.00,180.00,-22.50,CLOSED,0
654850.103,0,0,0,1.000,1.000,1.000,-90.00,180.00,-22.50,CLOSED,0
654850.106,0,0,0,1.000,1.000,1.000,-90.00,180.00,-22.50,CLOSED,0
654850.110,0,0,0,1.000,1.000,1.000,-90.00,180.00,-22.50,CLOSED,0
654850.114,0,0,0,1.000,1.000,1.000,-90.00,180.00,-22.50,CLOSED,0
654850.118,0,0,0,1.000,1.000,1.000,-90.00,180.00,-22.50,CLOSED,0
654850.122,0,0,0,1.000,1.000,1.000,-90.00,180.00,-22.50,CLOSED,0
654850.126,0,0,0,1.000,1.000,1.000,-90.00,180.00,-22.50,CLOSED,0
654850.129,0,0,0,1.000,1.000,1.000,-90.00,180.00,-22.50,CLOSED,0
654850.133,0,0,0,1.000,1.000,1.000,-90.00,180.00,-22.50,CLOSED,0
654850.137,0,0,0,1.000,1.000,1.000,-90.00,180.00,-22.50,CLOSED,0
654850.142,0,0,0,1.000,1.000,1.000,-90.00,180.00,-22.50,CLOSED,0
654850.146,0,0,0,1.000,1.000,1.000,-90.00,180.00,-22.50,CLOSED,0
654850.150,0,0,0,1.000,1.000,1.000,-90.00,180.00,-22.50,CLOSED,0
654850.154,0,0,0,1.000,1.000,1.000,-90.00,180.00,-22.50,CLOSED,0
654850.158,0,0,0,1.000,1.000,1.000,-90.00,180.00,-22.50,CLOSED,0
654850.161,0,0,0,1.000,1.000,1.000,-90.00,180.00,-22.50,CLOSED,0
654850.165,0,0,0,1.000,1.000,1.000,-90.00,180.00,-22.50,CLOSED,0
654850.169,0,0,0,1.000,1.000,1.000,-90.00,180.00,-22.50,CLOSED,0
654850.173,0,0,0,1.000,1.000,1.000,-90.00,180.00,-22.50,CLOSED,0
654850.177,0,0,0,1.000,1.000,1.000,-90.00,180.00,-22.50,CLOSED,0
654850.180,0,0,0,1.000,1.000,1.000,-90.00,180.00,-22.50,CLOSED,0
654850.184,0,0,0,1.000,1.000,1.000,-90.00,180.00,-22.50,CLOSED,0
654850.188,0,0,0,1.000,1.000,1.000,-90.00,180.00,-22.50,CLOSED,0
654850.192,0,0,0,1.000,1.000,1.000,-90.00,180.00,-22.50,CLOSED,0
654850.196,0,0,0,1.000,1.000,1.000,-90.00,180.00,-22.50,CLOSED,0
654850.200,0,0,0,1.000,1.000,1.000,-90.00,180.00,-22.50,CLOSED,0
654850.203,0,0,0,1.000,1.000,1.000,-90.00,180.00,-22.50,CLOSED,0
654850.207,0,0,0,1.000,1.000,1.000,-90.00,180.00,-22.50,CLOSED,0
654850.211,0,0,0,1.000,1.000,1.000,-90.00,180.00,-22.50,CLOSED,0
654850.214,0,0,0,1.000,1.000,1.000,-90.00,180.00,-22.50,CLOSED,0
654850.218,0,0,0,1.000,1.000,1.000,-90.00,180.00,-22.50,CLOSED,0
654850.221,0,0,0,1.000,1.000,1.000,-90.00,180.00,-22.50,CLOSED,0
654850.225,0,0,0,1.000,1.000,1.000,-90.00,180.00,-22.50,CLOSED,0
654850.228,0,0,0,1.000,1.000,1.000,-90.00,180.00,-22.50,CLOSED,0
654850.232,0,0,0,1.000,1.000,1.000,-90.00,180.00,-22.50,CLOSED,0
654850.236,0,0,0,1.000,1.000,1.000,-90.00,180.00,-22.50,CLOSED,0
654850.242,0,0,0,1.000,1.000,1.000,-90.00,180.00,-22.50,CLOSED,0
654850.247,0,0,0,1.000,1.000,1.000,-90.00,180.00,-22.50,CLOSED,0
654850.251,0,0,0,1.000,1.000,1.000,-90.00,180.00,-22.50,CLOSED,0
654850.255,0,0,0,1.000,1.000,1.000,-90.00,180.00,-22.50,CLOSED,0
654850.260,0,0,0,1.000,1.000,1.000,-90.00,180.00,-22.50,CLOSED,0
654850.264,0,0,0,1.000,1.000,1.000,-90.00,180.00,-22.50,CLOSED,0
654850.268,0,0,0,1.000,1.000,1.000,-90.00,180.00,-22.50,CLOSED,0
654850.271,0,0,0,1.000,1.000,1.000,-90.00,180.00,-22.50,CLOSED,0
654850.275,0,0,0,1.000,1.000,1.000,-90.00,180.00,-22.50,CLOSED,0
654850.279,0,0,0,1.000,1.000,1.000,-90.00,180.00,-22.50,CLOSED,0
654850.282,0,0,0,1.000,1.000,1.000,-90.00,180.00,-22.50,CLOSED,0
654850.286,0,0,0,1.000,1.000,1.000,-90.00,180.00,-22.50,CLOSED,0
654850.290,0,0,0,1.000,1.000,1.000,-90.00,180.00,-22.50,CLOSED,0
654850.296,0,0,0,1.000,1.000,1.000,-90.00,180.00,-22.50,CLOSED,0
654850.301,0,0,0,1.000,1.000,1.000,-90.00,180.00,-22.50,CLOSED,0
654850.306,0,0,0,1.000,1.000,1.000,-90.00,180.00,-22.50,CLOSED,0
654850.312,0,0,0,1.000,1.000,1.000,-90.00,180.00,-22.50,CLOSED,0
654850.318,0,0,0,1.000,1.000,1.000,-90.00,180.00,-22.50,CLOSED,0
654850.323,0,0,0,1.000,1.000,1.000,-90.00,180.00,-22.50,CLOSED,0
654850.329,0,0,0,1.000,1.000,1.000,-90.00,180.00,-22.50,CLOSED,0
654850.334,0,0,0,1.000,1.000,1.000,-90.00,180.00,-22.50,CLOSED,0
654850.339,0,0,0,1.000,1.000,1.000,-90.00,180.00,-22.50,CLOSED,0
654850.344,0,0,0,1.000,1.000,1.000,-90.00,180.00,-22.50,CLOSED,0
654850.349,0,0,0,1.000,1.000,1.000,-90.00,180.00,-22.50,CLOSED,0
654850.353,0,0,0,1.000,1.000,1.000,-90.00,180.00,-22.50,CLOSED,0
654850.357,0,0,0,1.000,1.000,1.000,-90.00,180.00,-22.50,CLOSED,0
654850.361,0,0,0,1.000,1.000,1.000,-90.00,180.00,-22.50,CLOSED,0
654850.365,0,0,0,1.000,1.000,1.000,-90.00,180.00,-22.50,CLOSED,0
654850.369,0,0,0,1.000,1.000,1.000,-90.00,180.00,-22.50,CLOSED,0
654850.374,0,0,0,1.000,1.000,1.000,-90.00,180.00,-22.50,CLOSED,0
654850.378,0,0,0,1.000,1.000,1.000,-90.00,180.00,-22.50,CLOSED,0
654850.383,0,0,0,1.000,1.000,1.000,-90.00,180.00,-22.50,CLOSED,0
654850.388,0,0,0,1.000,1.000,1.000,-90.00,180.00,-22.50,CLOSED,0
654850.393,0,0,0,1.000,1.000,1.000,-90.00,180.00,-22.50,CLOSED,0
654850.397,0,0,0,1.000,1.000,1.000,-90.00,180.00,-22.50,CLOSED,0
654850.401,0,0,0,1.000,1.000,1.000,-90.00,180.00,-22.50,CLOSED,0
654850.405,0,0,0,1.000,1.000,1.000,-90.00,180.00,-22.50,CLOSED,0
654850.409,0,0,0,1.000,1.000,1.000,-90.00,180.00,-22.50,CLOSED,0
654850.412,0,0,0,1.000,1.000,1.000,-90.00,180.00,-22.50,CLOSED,0
654850.416,0,0,0,1.000,1.000,1.000,-90.00,180.00,-22.50,CLOSED,0
654850.420,0,0,0,1.000,1.000,1.000,-90.00,180.00,-22.50,CLOSED,0
654850.426,0,0,0,1.000,1.000,1.000,-90.00,180.00,-22.50,CLOSED,0
654850.434,0,0,0,1.000,1.000,1.000,-90.00,180.00,-22.50,CLOSED,0
654850.441,0,0,0,1.000,1.000,1.000,-90.00,180.00,-22.50,CLOSED,0
654850.448,0,0,0,1.000,1.000,1.000,-90.00,180.00,-22.50,CLOSED,0
654850.455,0,0,0,1.000,1.000,1.000,-90.00,180.00,-22.50,CLOSED,0
654850.461,0,0,0,1.000,1.000,1.000,-90.00,180.00,-22.50,CLOSED,0
654850.467,0,0,0,1.000,1.000,1.000,-90.00,180.00,-22.50,CLOSED,0
654850.472,0,0,0,1.000,1.000,1.000,-90.00,180.00,-22.50,CLOSED,0
654850.477,0,0,0,1.000,1.000,1.000,-90.00,180.00,-22.50,CLOSED,0
654850.482,0,0,0,1.000,1.000,1.000,-90.00,180.00,-22.50,CLOSED,0
654850.486,0,0,0,1.000,1.000,1.000,-90.00,180.00,-22.50,CLOSED,0
654850.490,0,0,0,1.000,1.000,1.000,-90.00,180.00,-22.50,CLOSED,0
654850.494,0,0,0,1.000,1.000,1.000,-90.00,180.00,-22.50,CLOSED,0
654850.498,0,0,0,1.000,1.000,1.000,-90.00,180.00,-22.50,CLOSED,0
654850.502,0,0,0,1.000,1.000,1.000,-90.00,180.00,-22.50,CLOSED,0
654850.506,0,0,0,1.000,1.000,1.000,-90.00,180.00,-22.50,CLOSED,0
654850.509,0,0,0,1.000,1.000,1.000,-90.00,180.00,-22.50,CLOSED,0
654850.513,0,0,0,1.000,1.000,1.000,-90.00,180.00,-22.50,CLOSED,0
654850.517,0,0,0,1.000,1.000,1.000,-90.00,180.00,-22.50,CLOSED,0
654850.521,0,0,0,1.000,1.000,1.000,-90.00,180.00,-22.50,CLOSED,0
654850.524,0,0,0,1.000,1.000,1.000,-90.00,180.00,-22.50,CLOSED,0
654850.528,0,0,0,1.000,1.000,1.000,-90.00,180.00,-22.50,CLOSED,0
654850.532,0,0,0,1.000,1.000,1.000,-90.00,180.00,-22.50,CLOSED,0
654850.536,0,0,0,1.000,1.000,1.000,-90.00,180.00,-22.50,CLOSED,0
654850.539,0,0,0,1.000,1.000,1.000,-90.00,180.00,-22.50,CLOSED,0
654850.543,0,0,0,1.000,1.000,1.000,-90.00,180.00,-22.50,CLOSED,0
654850.547,0,0,0,1.000,1.000,1.000,-90.00,180.00,-22.50,CLOSED,0
654850.551,0,0,0,1.000,1.000,1.000,-90.00,180.00,-22.50,CLOSED,0
654850.555,0,0,0,1.000,1.000,1.000,-90.00,180.00,-22.50,CLOSED,0
654850.559,0,0,0,1.000,1.000,1.000,-90.00,180.00,-22.50,CLOSED,0
654850.564,0,0,0,1.000,1.000,1.000,-90.00,180.00,-22.50,CLOSED,0
654850.569,0,0,0,1.000,1.000,1.000,-90.00,180.00,-22.50,CLOSED,0
654850.572,0,0,0,1.000,1.000,1.000,-90.00,180.00,-22.50,CLOSED,0
654850.576,0,0,0,1.000,1.000,1.000,-90.00,180.00,-22.50,CLOSED,0
654850.580,0,0,0,1.000,1.000,1.000,-90.00,180.00,-22.50,CLOSED,0
654850.585,0,0,0,1.000,1.000,1.000,-90.00,180.00,-22.50,CLOSED,0
654850.589,0,0,0,1.000,1.000,1.000,-90.00,180.00,-22.50,CLOSED,0
654850.593,0,0,0,1.000,1.000,1.000,-90.00,180.00,-22.50,CLOSED,0
654850.599,0,0,0,1.000,1.000,1.000,-90.00,180.00,-22.50,CLOSED,0
654850.603,0,0,0,1.000,1.000,1.000,-90.00,180.00,-22.50,CLOSED,0
654850.608,0,0,0,1.000,1.000,1.000,-90.00,180.00,-22.50,CLOSED,0
654850.612,0,0,0,1.000,1.000,1.000,-90.00,180.00,-22.50,CLOSED,0
654850.616,0,0,0,1.000,1.000,1.000,-90.00,180.00,-22.50,CLOSED,0
654850.620,0,0,0,1.000,1.000,1.000,-90.00,180.00,-22.50,CLOSED,0
654850.624,0,0,0,1.000,1.000,1.000,-90.00,180.00,-22.50,CLOSED,0
654850.627,0,0,0,1.000,1.000,1.000,-90.00,180.00,-22.50,CLOSED,0
654850.631,0,0,0,1.000,1.000,1.000,-90.00,180.00,-22.50,CLOSED,0
654850.635,0,0,0,1.000,1.000,1.000,-90.00,180.00,-22.50,CLOSED,0
654850.639,0,0,0,1.000,1.000,1.000,-90.00,180.00,-22.50,CLOSED,0
654850.643,0,0,0,1.000,1.000,1.000,-90.00,180.00,-22.50,CLOSED,0
654850.647,0,0,0,1.000,1.000,1.000,-90.00,180.00,-22.50,CLOSED,0
654850.652,0,0,0,1.000,1.000,1.000,-90.00,180.00,-22.50,CLOSED,0
654850.656,0,0,0,1.000,1.000,1.000,-90.00,180.00,-22.50,CLOSED,0
654850.660,0,0,0,1.000,1.000,1.000,-90.00,180.00,-22.50,CLOSED,0
654850.665,0,0,0,1.000,1.000,1.000,-90.00,180.00,-22.50,CLOSED,0
654850.670,0,0,0,1.000,1.000,1.000,-90.00,180.00,-22.50,CLOSED,0
654850.674,0,0,0,1.000,1.000,1.000,-90.00,180.00,-22.50,CLOSED,0
654850.680,0,0,0,1.000,1.000,1.000,-90.00,180.00,-22.50,CLOSED,0
654850.685,0,0,0,1.000,1.000,1.000,-90.00,180.00,-22.50,CLOSED,0
654850.689,0,0,0,1.000,1.000,1.000,-90.00,180.00,-22.50,CLOSED,0
654850.693,0,0,0,1.000,1.000,1.000,-90.00,180.00,-22.50,CLOSED,0
654850.697,0,0,0,1.000,1.000,1.000,-90.00,180.00,-22.50,CLOSED,0
654850.701,0,0,0,1.000,1.000,1.000,-90.00,180.00,-22.50,CLOSED,0
654850.705,0,0,0,1.000,1.000,1.000,-90.00,180.00,-22.50,CLOSED,0
654850.708,0,0,0,1.000,1.000,1.000,-90.00,180.00,-22.50,CLOSED,0
654850.713,0,0,0,1.000,1.000,1.000,-90.00,180.00,-22.50,CLOSED,0
654850.717,0,0,0,1.000,1.000,1.000,-90.00,180.00,-22.50,CLOSED,0
654850.720,0,0,0,1.000,1.000,1.000,-90.00,180.00,-22.50,CLOSED,0
654850.724,0,0,0,1.000,1.000,1.000,-90.00,180.00,-22.50,CLOSED,0
654850.729,0,0,0,1.000,1.000,1.000,-90.00,180.00,-22.50,CLOSED,0
654850.733,0,0,0,1.000,1.000,1.000,-90.00,180.00,-22.50,CLOSED,0
654850.737,0,0,0,1.000,1.000,1.000,-90.00,180.00,-22.50,CLOSED,0
654850.741,0,0,0,1.000,1.000,1.000,-90.00,180.00,-22.50,CLOSED,0
654850.745,0,0,0,1.000,1.000,1.000,-90.00,180.00,-22.50,CLOSED,0
654850.749,0,0,0,1.000,1.000,1.000,-90.00,180.00,-22.50,CLOSED,0
654850.753,0,0,0,0.996,1.000,1.000,-90.00,180.00,-22.50,CLOSED,0
654850.756,0,0,0,0.993,1.000,1.000,-90.00,180.00,-22.50,CLOSED,0
654850.760,0,0,0,1.000,1.000,1.000,-90.00,180.00,-22.50,CLOSED,0
654850.764,0,0,0,1.000,1.000,1.000,-90.00,180.00,-22.50,CLOSED,0
654850.768,0,0,0,1.000,1.000,1.000,-90.00,180.00,-22.50,CLOSED,0
654850.773,0,0,0,1.000,1.000,1.000,-90.00,180.00,-22.50,CLOSED,0
654850.780,0,0,0,1.000,1.000,1.000,-90.00,180.00,-22.50,CLOSED,0
654850.787,0,0,0,1.000,1.000,1.000,-90.00,180.00,-22.50,CLOSED,0
654850.793,0,0,0,0.990,1.000,1.000,-90.00,180.00,-22.50,CLOSED,0
654850.800,0,0,0,0.999,1.000,1.000,-90.00,180.00,-22.50,CLOSED,0
654850.807,0,0,0,0.991,1.000,1.000,-90.00,180.00,-22.50,CLOSED,0
654850.814,0,0,0,0.992,1.000,1.000,-90.00,180.00,-22.50,CLOSED,0
654850.819,0,0,0,0.998,1.000,1.000,-90.00,180.00,-22.50,CLOSED,0
654850.823,0,0,0,1.000,1.000,1.000,-90.00,180.00,-22.50,CLOSED,0
654850.828,0,0,0,1.000,1.000,1.000,-90.00,180.00,-22.50,CLOSED,0
654850.831,0,0,0,1.000,1.000,1.000,-90.00,180.00,-22.50,CLOSED,0
654850.835,0,0,0,1.000,1.000,1.000,-90.00,180.00,-22.50,CLOSED,0
654850.839,0,0,0,1.000,1.000,1.000,-90.00,180.00,-22.50,CLOSED,0
654850.842,0,0,0,1.000,1.000,1.000,-90.00,180.00,-22.50,CLOSED,0
654850.846,0,0,0,1.000,1.000,1.000,-90.00,180.00,-22.50,CLOSED,0
654850.850,0,0,0,1.000,1.000,1.000,-90.00,180.00,-22.50,CLOSED,0
654850.854,0,0,0,1.000,1.000,1.000,-90.00,180.00,-22.50,CLOSED,0
654850.858,0,0,0,1.000,1.000,1.000,-90.00,180.00,-22.50,CLOSED,0
654850.863,0,0,0,1.000,1.000,1.000,-90.00,180.00,-22.50,CLOSED,0
654850.868,0,0,0,1.000,1.000,1.000,-90.00,180.00,-22.50,CLOSED,0
654850.873,0,0,0,1.000,1.000,1.000,-90.00,180.00,-22.50,CLOSED,0
654850.878,0,0,0,1.000,1.000,1.000,-90.00,180.00,-22.50,CLOSED,0
654850.883,0,0,0,1.000,1.000,1.000,-90.00,180.00,-22.50,CLOSED,0
654850.888,0,0,0,1.000,1.000,1.000,-90.00,180.00,-22.50,CLOSED,0
654850.893,0,0,0,1.000,1.000,1.000,-90.00,180.00,-22.50,CLOSED,0
654850.897,0,0,0,1.000,1.000,1.000,-90.00,180.00,-22.50,CLOSED,0
654850.901,0,0,0,1.000,1.000,1.000,-90.00,180.00,-22.50,CLOSED,0
654850.905,0,0,0,1.000,1.000,1.000,-90.00,180.00,-22.50,CLOSED,0
654850.909,0,0,0,1.000,1.000,1.000,-90.00,180.00,-22.50,CLOSED,0
654850.914,0,0,0,1.000,1.000,1.000,-90.00,180.00,-22.50,CLOSED,0
654850.917,0,0,0,1.000,1.000,1.000,-90.00,180.00,-22.50,CLOSED,0
654850.921,0,0,0,1.000,1.000,1.000,-90.00,180.00,-22.50,CLOSED,0
654850.925,0,0,0,1.000,1.000,1.000,-90.00,180.00,-22.50,CLOSED,0
654850.929,0,0,0,1.000,1.000,1.000,-90.00,180.00,-22.50,CLOSED,0
654850.933,0,0,0,1.000,1.000,1.000,-90.00,180.00,-22.50,CLOSED,0
654850.937,0,0,0,1.000,1.000,1.000,-90.00,180.00,-22.50,CLOSED,0
654850.940,0,0,0,1.000,1.000,1.000,-90.00,180.00,-22.50,CLOSED,0
654850.944,0,0,0,1.000,1.000,1.000,-90.00,180.00,-22.50,CLOSED,0
654850.948,0,0,0,1.000,1.000,1.000,-90.00,180.00,-22.50,CLOSED,0
654850.951,0,0,0,1.000,1.000,1.000,-90.00,180.00,-22.50,CLOSED,0
654850.955,0,0,0,1.000,1.000,1.000,-90.00,180.00,-22.50,CLOSED,0
654850.959,0,0,0,1.000,1.000,1.000,-90.00,180.00,-22.50,CLOSED,0
654850.963,0,0,0,1.000,1.000,1.000,-90.00,180.00,-22.50,CLOSED,0
654850.967,0,0,0,1.000,1.000,1.000,-90.00,180.00,-22.50,CLOSED,0
654850.971,0,0,0,1.000,1.000,1.000,-90.00,180.00,-22.50,CLOSED,0
654850.975,0,0,0,1.000,1.000,1.000,-90.00,180.00,-22.50,CLOSED,0
654850.978,0,0,0,1.000,1.000,1.000,-90.00,180.00,-22.50,CLOSED,0
654850.982,0,0,0,1.000,1.000,1.000,-90.00,180.00,-22.50,CLOSED,0
654850.986,0,0,0,1.000,1.000,1.000,-90.00,180.00,-22.50,CLOSED,0
654850.990,0,0,0,1.000,1.000,1.000,-90.00,180.00,-22.50,CLOSED,0
654850.994,0,0,0,1.000,1.000,1.000,-90.00,180.00,-22.50,CLOSED,0
654850.997,0,0,0,1.000,1.000,1.000,-90.00,180.00,-22.50,CLOSED,0
654851.001,0,0,0,1.000,1.000,1.000,-90.00,180.00,-22.50,CLOSED,0
654851.005,0,0,0,1.000,1.000,1.000,-90.00,180.00,-22.50,CLOSED,0
654851.010,0,0,0,1.000,1.000,1.000,-90.00,180.00,-22.50,CLOSED,0
654851.014,0,0,0,1.000,1.000,1.000,-90.00,180.00,-22.50,CLOSED,0
654851.019,0,0,0,1.000,1.000,1.000,-90.00,180.00,-22.50,CLOSED,0
654851.025,0,0,0,1.000,1.000,1.000,-90.00,180.00,-22.50,CLOSED,0
654851.030,0,0,0,1.000,1.000,1.000,-90.00,180.00,-22.50,CLOSED,0
654851.035,0,0,0,1.000,1.000,1.000,-90.00,180.00,-22.50,CLOSED,0
654851.039,0,0,0,1.000,1.000,1.000,-90.00,180.00,-22.50,CLOSED,0
654851.043,0,0,0,1.000,1.000,1.000,-90.00,180.00,-22.50,CLOSED,0
654851.048,0,0,0,1.000,1.000,1.000,-90.00,180.00,-22.50,CLOSED,0
654851.052,0,0,0,1.000,1.000,1.000,-90.00,180.00,-22.50,CLOSED,0
654851.057,0,0,0,1.000,1.000,1.000,-90.00,180.00,-22.50,CLOSED,0
654851.061,0,0,0,1.000,1.000,1.000,-90.00,180.00,-22.50,CLOSED,0
654851.066,0,0,0,1.000,1.000,1.000,-90.00,180.00,-22.50,CLOSED,0
654851.070,0,0,0,1.000,1.000,1.000,-90.00,180.00,-22.50,CLOSED,0
654851.074,0,0,0,1.000,1.000,1.000,-90.00,180.00,-22.50,CLOSED,0
654851.079,0,0,0,1.000,1.000,1.000,-90.00,180.00,-22.50,CLOSED,0
654851.083,0,0,0,1.000,1.000,1.000,-90.00,180.00,-22.50,CLOSED,0
654851.089,0,0,0,1.000,1.000,1.000,-90.00,180.00,-22.50,CLOSED,0
654851.094,0,0,0,1.000,1.000,1.000,-90.00,180.00,-22.50,CLOSED,0
654851.099,0,0,0,1.000,1.000,1.000,-90.00,180.00,-22.50,CLOSED,0
654851.103,0,0,0,1.000,1.000,1.000,-90.00,180.00,-22.50,CLOSED,0
654851.107,0,0,0,1.000,1.000,1.000,-90.00,180.00,-22.50,CLOSED,0
654851.111,0,0,0,1.000,1.000,1.000,-90.00,180.00,-22.50,CLOSED,0
654851.115,0,0,0,1.000,1.000,1.000,-90.00,180.00,-22.50,CLOSED,0
654851.119,0,0,0,1.000,1.000,1.000,-90.00,180.00,-22.50,CLOSED,0
654851.123,0,0,0,1.000,1.000,1.000,-90.00,180.00,-22.50,CLOSED,0
654851.129,0,0,0,1.000,1.000,1.000,-90.00,180.00,-22.50,CLOSED,0
654851.136,0,0,0,1.000,1.000,1.000,-90.00,180.00,-22.50,CLOSED,0
654851.148,0,0,0,1.000,1.000,1.000,-90.00,180.00,-22.50,CLOSED,0
654851.157,0,0,0,1.000,1.000,1.000,-90.00,180.00,-22.50,CLOSED,0
654851.167,0,0,0,1.000,1.000,1.000,-90.00,180.00,-22.50,CLOSED,0
654851.176,0,0,0,1.000,1.000,1.000,-90.00,180.00,-22.50,CLOSED,0
654851.188,0,0,0,1.000,1.000,1.000,-90.00,180.00,-22.50,CLOSED,0
654851.193,0,0,0,1.000,1.000,1.000,-90.00,180.00,-22.50,CLOSED,0
654851.198,0,0,0,1.000,1.000,1.000,-90.00,180.00,-22.50,CLOSED,0
654851.203,0,0,0,1.000,1.000,1.000,-90.00,180.00,-22.50,CLOSED,0
654851.207,0,0,0,1.000,1.000,1.000,-90.00,180.00,-22.50,CLOSED,0
654851.211,0,0,0,1.000,1.000,1.000,-90.00,180.00,-22.50,CLOSED,0
654851.215,0,0,0,1.000,1.000,1.000,-90.00,180.00,-22.50,CLOSED,0
654851.218,0,0,0,1.000,1.000,1.000,-90.00,180.00,-22.50,CLOSED,0
654851.222,0,0,0,1.000,1.000,1.000,-90.00,180.00,-22.50,CLOSED,0
654851.226,0,0,0,1.000,1.000,1.000,-90.00,180.00,-22.50,CLOSED,0
654851.230,0,0,0,1.000,1.000,1.000,-90.00,180.00,-22.50,CLOSED,0
654851.234,0,0,0,1.000,1.000,1.000,-90.00,180.00,-22.50,CLOSED,0
654851.237,0,0,0,1.000,1.000,1.000,-90.00,180.00,-22.50,CLOSED,0
654851.241,0,0,0,1.000,1.000,1.000,-90.00,180.00,-22.50,CLOSED,0
654851.245,0,0,0,1.000,1.000,1.000,-90.00,180.00,-22.50,CLOSED,0
654851.249,0,0,0,1.000,1.000,1.000,-90.00,180.00,-22.50,CLOSED,0
654851.253,0,0,0,1.000,1.000,1.000,-90.00,180.00,-22.50,CLOSED,0
654851.258,0,0,0,1.000,1.000,1.000,-90.00,180.00,-22.50,CLOSED,0
654851.264,0,0,0,1.000,1.000,1.000,-90.00,180.00,-22.50,CLOSED,0
654851.269,0,0,0,1.000,1.000,1.000,-90.00,180.00,-22.50,CLOSED,0
654851.274,0,0,0,1.000,1.000,1.000,-90.00,180.00,-22.50,CLOSED,0
654851.279,0,0,0,1.000,1.000,1.000,-90.00,180.00,-22.50,CLOSED,0
654851.284,0,0,0,1.000,1.000,1.000,-90.00,180.00,-22.50,CLOSED,0
654851.288,0,0,0,1.000,1.000,1.000,-90.00,180.00,-22.50,CLOSED,0
654851.292,0,0,0,1.000,1.000,1.000,-90.00,180.00,-22.50,CLOSED,0
654851.296,0,0,0,1.000,1.000,1.000,-90.00,180.00,-22.50,CLOSED,0
654851.300,0,0,0,1.000,1.000,1.000,-90.00,180.00,-22.50,CLOSED,0
654851.304,0,0,0,1.000,1.000,1.000,-90.00,180.00,-22.50,CLOSED,0
654851.308,0,0,0,1.000,1.000,1.000,-90.00,180.00,-22.50,CLOSED,0
654851.313,0,0,0,1.000,1.000,1.000,-90.00,180.00,-22.50,CLOSED,0
654851.319,0,0,0,1.000,1.000,1.000,-90.00,180.00,-22.50,CLOSED,0
654851.324,0,0,0,1.000,1.000,1.000,-90.00,180.00,-22.50,CLOSED,0
654851.330,0,0,0,1.000,1.000,1.000,-90.00,180.00,-22.50,CLOSED,0
654851.335,0,0,0,1.000,1.000,1.000,-90.00,180.00,-22.50,CLOSED,0
654851.340,0,0,0,1.000,1.000,1.000,-90.00,180.00,-22.50,CLOSED,0
654851.345,0,0,0,1.000,1.000,1.000,-90.00,180.00,-22.50,CLOSED,0
654851.350,0,0,0,1.000,1.000,1.000,-90.00,180.00,-22.50,CLOSED,0
654851.355,0,0,0,1.000,1.000,1.000,-90.00,180.00,-22.50,CLOSED,0
654851.359,0,0,0,1.000,1.000,1.000,-90.00,180.00,-22.50,CLOSED,0
654851.363,0,0,0,1.000,1.000,1.000,-90.00,180.00,-22.50,CLOSED,0
654851.367,0,0,0,1.000,1.000,1.000,-90.00,180.00,-22.50,CLOSED,0
654851.370,0,0,0,1.000,1.000,1.000,-90.00,180.00,-22.50,CLOSED,0
654851.374,0,0,0,1.000,1.000,1.000,-90.00,180.00,-22.50,CLOSED,0
654851.378,0,0,0,1.000,1.000,1.000,-90.00,180.00,-22.50,CLOSED,0
654851.382,0,0,0,1.000,1.000,1.000,-90.00,180.00,-22.50,CLOSED,0
654851.385,0,0,0,1.000,1.000,1.000,-90.00,180.00,-22.50,CLOSED,0
654851.389,0,0,0,1.000,1.000,1.000,-90.00,180.00,-22.50,CLOSED,0
654851.393,0,0,0,1.000,1.000,1.000,-90.00,180.00,-22.50,CLOSED,0
654851.397,0,0,0,1.000,1.000,1.000,-90.00,180.00,-22.50,CLOSED,0
654851.401,0,0,0,1.000,1.000,1.000,-90.00,180.00,-22.50,CLOSED,0
654851.404,0,0,0,1.000,0.999,1.000,-90.00,180.00,-22.50,CLOSED,0
654851.408,0,0,0,1.000,0.998,1.000,-90.00,180.00,-22.50,CLOSED,0
654851.412,0,0,0,1.000,0.994,1.000,-90.00,180.00,-22.50,CLOSED,0
654851.416,0,0,0,1.000,0.973,1.000,-90.00,180.00,-22.50,CLOSED,0
654851.420,0,0,0,1.000,0.706,1.000,-90.00,180.00,-22.50,CLOSED,0
654851.424,0,0,0,1.000,0.835,1.000,-90.00,180.00,-22.50,CLOSED,0
654851.427,0,0,0,1.000,0.947,1.000,-90.00,180.00,-22.50,CLOSED,0
654851.431,0,0,0,1.000,0.962,1.000,-90.00,180.00,-22.50,CLOSED,0
654851.435,0,0,0,1.000,0.954,1.000,-90.00,180.00,-22.50,CLOSED,0
654851.439,0,0,0,1.000,0.886,1.000,-90.00,180.00,-22.50,CLOSED,0
654851.443,0,0,0,1.000,0.583,1.000,-90.00,180.00,-22.50,CLOSED,0
654851.446,0,0,0,1.000,0.745,1.000,-90.00,180.00,-22.50,CLOSED,0
654851.450,0,0,0,1.000,0.909,1.000,-90.00,180.00,-22.50,CLOSED,0
654851.454,0,0,0,1.000,0.961,0.999,-90.00,180.00,-22.50,CLOSED,0
654851.457,0,0,0,1.000,0.986,0.998,-90.00,180.00,-22.50,CLOSED,0
654851.461,0,0,0,1.000,0.994,0.997,-90.00,180.00,-22.50,CLOSED,0
654851.465,0,0,0,1.000,0.996,0.996,-90.00,180.00,-22.50,CLOSED,0
654851.469,0,0,0,1.000,0.997,0.995,-90.00,180.00,-22.50,CLOSED,0
654851.473,0,0,0,1.000,0.998,0.995,-90.00,180.00,-22.50,CLOSED,0
654851.477,0,0,0,1.000,0.998,0.994,-90.00,180.00,-22.50,CLOSED,0
654851.482,0,0,0,1.000,0.998,0.994,-90.00,180.00,-22.50,CLOSED,0
654851.486,0,0,0,1.000,0.999,0.992,-90.00,180.00,-22.50,CLOSED,0
654851.490,0,0,0,1.000,0.999,0.987,-90.00,180.00,-22.50,CLOSED,0
654851.493,0,0,0,1.000,0.999,0.979,-90.00,180.00,-22.50,CLOSED,0
654851.497,0,0,0,1.000,0.999,0.969,-90.00,180.00,-22.50,CLOSED,0
654851.501,0,0,0,1.000,1.000,0.968,-90.00,180.00,-22.50,CLOSED,0
654851.505,0,0,0,1.000,1.000,0.970,-90.00,180.00,-22.50,CLOSED,0
654851.509,0,0,0,1.000,1.000,0.976,-90.00,180.00,-22.50,CLOSED,0
654851.513,0,0,0,1.000,1.000,0.979,-90.00,180.00,-22.50,CLOSED,0
654851.517,0,0,0,1.000,0.999,0.980,-90.00,180.00,-22.50,CLOSED,0
654851.521,0,0,0,1.000,0.999,0.982,-90.00,180.00,-22.50,CLOSED,0
654851.525,0,0,0,1.000,0.998,0.983,-90.00,180.00,-22.50,CLOSED,0
654851.528,0,0,0,1.000,0.994,0.979,-90.00,180.00,-22.50,CLOSED,0
654851.532,0,0,0,1.000,0.980,0.973,-90.00,180.00,-22.50,CLOSED,0
654851.536,0,0,0,1.000,0.943,0.951,-90.00,180.00,-22.50,CLOSED,0
654851.540,0,0,0,1.000,0.888,0.924,-90.00,180.00,-22.50,CLOSED,0
654851.543,0,0,0,1.000,0.865,0.897,-90.00,180.00,-22.50,CLOSED,0
654851.547,0,0,0,1.000,0.869,0.887,-90.00,180.00,-22.50,CLOSED,0
654851.551,0,0,0,1.000,0.854,0.901,-90.00,180.00,-22.50,CLOSED,0
654851.555,0,0,0,1.000,0.831,0.929,-90.00,180.00,-22.50,CLOSED,0
654851.559,0,0,0,1.000,0.825,0.960,-90.00,180.00,-22.50,CLOSED,0
654851.563,0,0,0,1.000,0.859,0.977,-90.00,180.00,-22.50,CLOSED,0
654851.567,0,0,0,1.000,0.906,0.988,-90.00,180.00,-22.50,CLOSED,0
654851.571,0,0,0,1.000,0.942,0.992,-90.00,180.00,-22.50,CLOSED,0
654851.575,0,0,0,1.000,0.969,0.995,-90.00,180.00,-22.50,CLOSED,0
654851.579,0,0,0,1.000,0.981,0.997,-90.00,180.00,-22.50,CLOSED,0
654851.582,0,0,0,1.000,0.989,0.998,-90.00,180.00,-22.50,CLOSED,0
654851.586,0,0,0,1.000,0.992,0.998,-90.00,180.00,-22.50,CLOSED,0
654851.590,0,0,0,1.000,0.995,0.998,-90.00,180.00,-22.50,CLOSED,0
654851.594,0,0,0,1.000,0.996,0.998,-90.00,180.00,-22.50,CLOSED,0
654851.598,0,0,0,1.000,0.997,0.998,-90.00,180.00,-22.50,CLOSED,0
654851.602,0,0,0,1.000,0.996,0.997,-90.00,180.00,-22.50,CLOSED,0
654851.606,0,0,0,1.000,0.995,0.996,-90.00,180.00,-22.50,CLOSED,0
654851.610,0,0,0,1.000,0.989,0.994,-90.00,180.00,-22.50,CLOSED,0
654851.615,0,0,0,1.000,0.962,0.989,-90.00,180.00,-22.50,CLOSED,0
654851.619,0,0,0,1.000,0.843,0.982,-90.00,180.00,-22.50,CLOSED,0
654851.623,0,0,0,1.000,0.502,0.973,-90.00,180.00,-22.50,CLOSED,0
654851.626,0,0,0,1.000,0.804,0.970,-90.00,180.00,-22.50,CLOSED,0
654851.630,0,0,0,1.000,0.892,0.972,-90.00,180.00,-22.50,CLOSED,0
654851.634,0,0,0,1.000,0.892,0.979,-90.00,180.00,-22.50,CLOSED,0
654851.638,0,0,0,1.000,0.818,0.984,-90.00,180.00,-22.50,CLOSED,0
654851.642,0,0,0,1.000,0.657,0.989,-90.00,180.00,-22.50,CLOSED,0
654851.646,0,0,0,1.000,0.515,0.990,-90.00,180.00,-22.50,CLOSED,0
654851.649,0,0,0,1.000,0.650,0.990,-90.00,180.00,-22.50,CLOSED,0
654851.653,0,0,0,1.000,0.754,0.989,-90.00,180.00,-22.50,CLOSED,0
654851.657,0,0,0,1.000,0.770,0.988,-90.00,180.00,-22.50,CLOSED,0
654851.660,0,0,0,1.000,0.735,0.985,-90.00,180.00,-22.50,CLOSED,0
654851.664,0,0,0,1.000,0.698,0.983,-90.00,180.00,-22.50,CLOSED,0
654851.668,0,0,0,1.000,0.645,0.984,-90.00,180.00,-22.50,CLOSED,0
654851.672,0,0,0,1.000,0.608,0.985,-90.00,180.00,-22.50,CLOSED,0
654851.676,0,0,0,1.000,0.618,0.989,-90.00,180.00,-22.50,CLOSED,0
654851.679,0,0,0,1.000,0.718,0.990,-90.00,180.00,-22.50,CLOSED,0
654851.683,0,0,0,1.000,0.775,0.992,-90.00,180.00,-22.50,CLOSED,0
654851.687,0,0,0,1.000,0.844,0.990,-90.00,180.00,-22.50,CLOSED,0
654851.691,0,0,0,1.000,0.898,0.991,-90.00,180.00,-22.50,CLOSED,0
654851.695,0,0,0,1.000,0.915,0.989,-90.00,180.00,-22.50,CLOSED,0
654851.700,0,0,0,1.000,0.913,0.986,-90.00,180.00,-22.50,CLOSED,0
654851.705,0,0,0,1.000,0.908,0.983,-90.00,180.00,-22.50,CLOSED,0
654851.709,0,0,0,1.000,0.883,0.972,-90.00,180.00,-22.50,CLOSED,0
654851.714,0,0,0,1.000,0.875,0.955,-90.00,180.00,-22.50,CLOSED,0
654851.718,0,0,0,1.000,0.937,0.949,-90.00,180.00,-22.50,CLOSED,0
654851.722,0,0,0,1.000,0.978,0.950,-90.00,180.00,-22.50,CLOSED,0
654851.726,0,0,0,1.000,0.992,0.962,-90.00,180.00,-22.50,CLOSED,0
654851.731,0,0,0,1.000,0.996,0.970,-90.00,180.00,-22.50,CLOSED,0
654851.735,0,0,0,1.000,0.997,0.974,-90.00,180.00,-22.50,CLOSED,0
654851.738,0,0,0,1.000,0.998,0.978,-90.00,180.00,-22.50,CLOSED,0
654851.742,0,0,0,1.000,0.998,0.979,-90.00,180.00,-22.50,CLOSED,0
654851.746,0,0,0,1.000,0.997,0.977,-90.00,180.00,-22.50,CLOSED,0
654851.750,0,0,0,1.000,0.994,0.975,-90.00,180.00,-22.50,CLOSED,0
654851.753,0,0,0,1.000,0.987,0.974,-90.00,180.00,-22.50,CLOSED,0
654851.757,0,0,0,1.000,0.955,0.970,-90.00,180.00,-22.50,CLOSED,0
654851.761,0,0,0,1.000,0.852,0.962,-90.00,180.00,-22.50,CLOSED,0
654851.765,0,0,0,1.000,0.690,0.959,-90.00,180.00,-22.50,CLOSED,0
654851.768,0,0,0,1.000,0.531,0.957,-90.00,180.00,-22.50,CLOSED,0
654851.772,0,0,0,1.000,0.596,0.954,-90.00,180.00,-22.50,CLOSED,0
654851.776,0,0,0,1.000,0.509,0.960,-90.00,180.00,-22.50,CLOSED,0
654851.780,0,0,0,1.000,0.617,0.963,-90.00,180.00,-22.50,CLOSED,0
654851.784,0,0,0,1.000,0.725,0.964,-90.00,180.00,-22.50,CLOSED,0
654851.788,0,0,0,1.000,0.760,0.968,-90.00,180.00,-22.50,CLOSED,0
654851.792,0,0,0,1.000,0.755,0.971,-90.00,180.00,-22.50,CLOSED,0
654851.796,0,0,0,1.000,0.711,0.976,-90.00,180.00,-22.50,CLOSED,0
654851.799,0,0,0,1.000,0.637,0.980,-90.00,180.00,-22.50,CLOSED,0
654851.803,0,0,0,1.000,0.555,0.980,-90.00,180.00,-22.50,CLOSED,0
654851.807,0,0,0,1.000,0.519,0.983,-90.00,180.00,-22.50,CLOSED,0
654851.812,0,0,0,1.000,0.550,0.983,-90.00,180.00,-22.50,CLOSED,0
654851.817,0,0,0,1.000,0.720,0.981,-90.00,180.00,-22.50,CLOSED,0
654851.822,0,0,0,1.000,0.863,0.972,-90.00,180.00,-22.50,CLOSED,0
654851.826,0,0,0,1.000,0.956,0.953,-90.00,180.00,-22.50,CLOSED,0
654851.830,0,0,0,1.000,0.980,0.932,-90.00,180.00,-22.50,CLOSED,0
654851.835,0,0,0,1.000,0.987,0.903,-90.00,180.00,-22.50,CLOSED,0
654851.840,0,0,0,1.000,0.988,0.892,-90.00,180.00,-22.50,CLOSED,0
654851.845,0,0,0,1.000,0.986,0.895,-90.00,180.00,-22.50,CLOSED,0
654851.850,0,0,0,1.000,0.977,0.924,-90.00,180.00,-22.50,CLOSED,0
654851.854,0,0,0,1.000,0.950,0.968,-90.00,180.00,-22.50,CLOSED,0
654851.859,0,0,0,1.000,0.926,0.987,-90.00,180.00,-22.50,CLOSED,0
654851.864,0,0,0,1.000,0.941,0.996,-90.00,180.00,-22.50,CLOSED,0
654851.868,0,0,0,1.000,0.975,0.999,-90.00,180.00,-22.50,CLOSED,0
654851.873,0,0,0,1.000,0.987,0.999,-90.00,180.00,-22.50,CLOSED,0
654851.877,0,0,0,1.000,0.995,0.999,-90.00,180.00,-22.50,CLOSED,0
654851.881,0,0,0,1.000,0.999,0.999,-90.00,180.00,-22.50,CLOSED,0
654851.885,0,0,0,1.000,1.000,0.999,-90.00,180.00,-22.50,CLOSED,0
654851.889,0,0,0,1.000,1.000,0.999,-90.00,180.00,-22.50,CLOSED,0
654851.893,0,0,0,1.000,1.000,0.999,-90.00,180.00,-22.50,CLOSED,0
654851.897,0,0,0,1.000,1.000,1.000,-90.00,180.00,-22.50,CLOSED,0
654851.901,0,0,0,1.000,1.000,1.000,-90.00,180.00,-22.50,CLOSED,0
654851.904,0,0,0,1.000,1.000,1.000,-90.00,180.00,-22.50,CLOSED,0
654851.908,0,0,0,1.000,1.000,1.000,-90.00,180.00,-22.50,CLOSED,0
654851.913,0,0,0,1.000,0.998,1.000,-90.00,180.00,-22.50,CLOSED,0
654851.916,0,0,0,0.999,0.998,1.000,-90.00,180.00,-22.50,CLOSED,0
654851.920,0,0,0,0.999,0.998,1.000,-90.00,180.00,-22.50,CLOSED,0
654851.924,0,0,0,0.999,0.999,1.000,-90.00,180.00,-22.50,CLOSED,0
654851.928,0,0,0,1.000,1.000,1.000,-90.00,180.00,-22.50,CLOSED,0
654851.932,0,0,0,1.000,1.000,1.000,-90.00,180.00,-22.50,CLOSED,0
654851.936,0,0,0,1.000,1.000,1.000,-90.00,180.00,-22.50,CLOSED,0
654851.940,0,0,0,1.000,1.000,1.000,-90.00,180.00,-22.50,CLOSED,0
654851.944,0,0,0,1.000,1.000,1.000,-90.00,180.00,-22.50,CLOSED,0
654851.948,0,0,0,1.000,1.000,1.000,-90.00,180.00,-22.50,CLOSED,0
654851.953,0,0,0,1.000,1.000,1.000,-90.00,180.00,-22.50,CLOSED,0
654851.956,0,0,0,1.000,1.000,1.000,-90.00,180.00,-22.50,CLOSED,0
654851.960,0,0,0,1.000,1.000,1.000,-90.00,180.00,-22.50,CLOSED,0
654851.964,0,0,0,1.000,1.000,1.000,-90.00,180.00,-22.50,CLOSED,0
654851.969,0,0,0,1.000,1.000,1.000,-90.00,180.00,-22.50,CLOSED,0
654851.973,0,0,0,1.000,1.000,1.000,-90.00,180.00,-22.50,CLOSED,0
654851.978,0,0,0,1.000,1.000,1.000,-90.00,180.00,-22.50,CLOSED,0
654851.983,0,0,0,1.000,1.000,1.000,-90.00,180.00,-22.50,CLOSED,0
654851.987,0,0,0,1.000,1.000,1.000,-90.00,180.00,-22.50,CLOSED,0
654851.991,0,0,0,1.000,1.000,1.000,-90.00,180.00,-22.50,CLOSED,0
654851.995,0,0,0,1.000,1.000,1.000,-90.00,180.00,-22.50,CLOSED,0
654851.999,0,0,0,1.000,1.000,1.000,-90.00,180.00,-22.50,CLOSED,0
654852.004,0,0,0,1.000,1.000,1.000,-90.00,180.00,-22.50,CLOSED,0
654852.008,0,0,0,1.000,1.000,1.000,-90.00,180.00,-22.50,CLOSED,0
654852.012,0,0,0,1.000,1.000,1.000,-90.00,180.00,-22.50,CLOSED,0
654852.016,0,0,0,1.000,1.000,1.000,-90.00,180.00,-22.50,CLOSED,0
654852.021,0,0,0,1.000,1.000,1.000,-90.00,180.00,-22.50,CLOSED,0
654852.026,0,0,0,1.000,1.000,1.000,-90.00,180.00,-22.50,CLOSED,0
654852.031,0,0,0,1.000,1.000,1.000,-90.00,180.00,-22.50,CLOSED,0
654852.036,0,0,0,1.000,1.000,1.000,-90.00,180.00,-22.50,CLOSED,0
654852.040,0,0,0,1.000,1.000,1.000,-90.00,180.00,-22.50,CLOSED,0
654852.044,0,0,0,1.000,1.000,1.000,-90.00,180.00,-22.50,CLOSED,0
654852.048,0,0,0,1.000,1.000,1.000,-90.00,180.00,-22.50,CLOSED,0
654852.053,0,0,0,1.000,1.000,1.000,-90.00,180.00,-22.50,CLOSED,0
654852.057,0,0,0,1.000,1.000,1.000,-90.00,180.00,-22.50,CLOSED,0
654852.061,0,0,0,1.000,1.000,1.000,-90.00,180.00,-22.50,CLOSED,0
654852.065,0,0,0,1.000,1.000,1.000,-90.00,180.00,-22.50,CLOSED,0
654852.069,0,0,0,1.000,1.000,1.000,-90.00,180.00,-22.50,CLOSED,0
654852.072,0,0,0,1.000,1.000,1.000,-90.00,180.00,-22.50,CLOSED,0
654852.076,0,0,0,1.000,1.000,1.000,-90.00,180.00,-22.50,CLOSED,0
654852.080,0,0,0,1.000,1.000,1.000,-90.00,180.00,-22.50,CLOSED,0
654852.084,0,0,0,1.000,1.000,1.000,-90.00,180.00,-22.50,CLOSED,0
654852.088,0,0,0,1.000,1.000,1.000,-90.00,180.00,-22.50,CLOSED,0
654852.092,0,0,0,1.000,1.000,1.000,-90.00,180.00,-22.50,CLOSED,0
654852.096,0,0,0,1.000,1.000,1.000,-90.00,180.00,-22.50,CLOSED,0
654852.100,0,0,0,1.000,1.000,1.000,-90.00,180.00,-22.50,CLOSED,0
654852.104,0,0,0,1.000,1.000,1.000,-90.00,180.00,-22.50,CLOSED,0
654852.107,0,0,0,1.000,1.000,1.000,-90.00,180.00,-22.50,CLOSED,0
654852.111,0,0,0,1.000,1.000,1.000,-90.00,180.00,-22.50,CLOSED,0
654852.115,0,0,0,1.000,1.000,1.000,-90.00,180.00,-22.50,CLOSED,0
654852.119,0,0,0,1.000,1.000,1.000,-90.00,180.00,-22.50,CLOSED,0
654852.123,0,0,0,1.000,1.000,1.000,-90.00,180.00,-22.50,CLOSED,0
654852.127,0,0,0,1.000,1.000,1.000,-90.00,180.00,-22.50,CLOSED,0
654852.131,0,0,0,1.000,1.000,1.000,-90.00,180.00,-22.50,CLOSED,0
654852.134,0,0,0,1.000,1.000,1.000,-90.00,180.00,-22.50,CLOSED,0
654852.138,0,0,0,1.000,1.000,1.000,-90.00,180.00,-22.50,CLOSED,0
654852.143,0,0,0,1.000,1.000,1.000,-90.00,180.00,-22.50,CLOSED,0
654852.147,0,0,0,1.000,1.000,1.000,-90.00,180.00,-22.50,CLOSED,0
654852.151,0,0,0,1.000,1.000,1.000,-90.00,180.00,-22.50,CLOSED,0
654852.156,0,0,0,1.000,1.000,1.000,-90.00,180.00,-22.50,CLOSED,0
654852.161,0,0,0,1.000,1.000,1.000,-90.00,180.00,-22.50,CLOSED,0
654852.166,0,0,0,1.000,1.000,1.000,-90.00,180.00,-22.50,CLOSED,0
654852.171,0,0,0,1.000,1.000,1.000,-90.00,180.00,-22.50,CLOSED,0
654852.176,0,0,0,1.000,1.000,1.000,-90.00,180.00,-22.50,CLOSED,0
654852.180,0,0,0,1.000,1.000,1.000,-90.00,180.00,-22.50,CLOSED,0
654852.184,0,0,0,1.000,1.000,1.000,-90.00,180.00,-22.50,CLOSED,0
654852.189,0,0,0,1.000,1.000,1.000,-90.00,180.00,-22.50,CLOSED,0
654852.192,0,0,0,1.000,1.000,1.000,-90.00,180.00,-22.50,CLOSED,0
654852.196,0,0,0,1.000,1.000,1.000,-90.00,180.00,-22.50,CLOSED,0
654852.200,0,0,0,1.000,1.000,1.000,-90.00,180.00,-22.50,CLOSED,0
654852.204,0,0,0,1.000,1.000,1.000,-90.00,180.00,-22.50,CLOSED,0
654852.207,0,0,0,1.000,1.000,1.000,-90.00,180.00,-22.50,CLOSED,0
654852.211,0,0,0,1.000,1.000,1.000,-90.00,180.00,-22.50,CLOSED,0
654852.215,0,0,0,1.000,1.000,1.000,-90.00,180.00,-22.50,CLOSED,0
654852.219,0,0,0,1.000,1.000,1.000,-90.00,180.00,-22.50,CLOSED,0
654852.222,0,0,0,1.000,1.000,1.000,-90.00,180.00,-22.50,CLOSED,0
654852.226,0,0,0,1.000,1.000,1.000,-90.00,180.00,-22.50,CLOSED,0
654852.231,0,0,0,1.000,1.000,1.000,-90.00,180.00,-22.50,CLOSED,0
654852.235,0,0,0,1.000,1.000,1.000,-90.00,180.00,-22.50,CLOSED,0
654852.239,0,0,0,1.000,1.000,1.000,-90.00,180.00,-22.50,CLOSED,0
654852.243,0,0,0,1.000,1.000,1.000,-90.00,180.00,-22.50,CLOSED,0
654852.247,0,0,0,1.000,1.000,1.000,-90.00,180.00,-22.50,CLOSED,0
654852.251,0,0,0,1.000,1.000,1.000,-90.00,180.00,-22.50,CLOSED,0
654852.255,0,0,0,1.000,1.000,1.000,-90.00,180.00,-22.50,CLOSED,0
654852.259,0,0,0,1.000,1.000,1.000,-90.00,180.00,-22.50,CLOSED,0
654852.264,0,0,0,1.000,1.000,1.000,-90.00,180.00,-22.50,CLOSED,0
654852.269,0,0,0,1.000,1.000,1.000,-90.00,180.00,-22.50,CLOSED,0
654852.274,0,0,0,1.000,1.000,1.000,-90.00,180.00,-22.50,CLOSED,0
654852.278,0,0,0,1.000,1.000,1.000,-90.00,180.00,-22.50,CLOSED,0
654852.283,0,0,0,1.000,1.000,1.000,-90.00,180.00,-22.50,CLOSED,0
654852.288,0,0,0,1.000,1.000,1.000,-90.00,180.00,-22.50,CLOSED,0
654852.293,0,0,0,1.000,1.000,1.000,-90.00,180.00,-22.50,CLOSED,0
654852.297,0,0,0,1.000,1.000,1.000,-90.00,180.00,-22.50,CLOSED,0
654852.301,0,0,0,1.000,1.000,1.000,-90.00,180.00,-22.50,CLOSED,0
654852.305,0,0,0,1.000,1.000,1.000,-90.00,180.00,-22.50,CLOSED,0
654852.309,0,0,0,1.000,1.000,1.000,-90.00,180.00,-22.50,CLOSED,0
654852.313,0,0,0,1.000,1.000,1.000,-90.00,180.00,-22.50,CLOSED,0
654852.316,0,0,0,1.000,1.000,1.000,-90.00,180.00,-22.50,CLOSED,0
654852.320,0,0,0,1.000,1.000,1.000,-90.00,180.00,-22.50,CLOSED,0
654852.325,0,0,0,1.000,1.000,1.000,-90.00,180.00,-22.50,CLOSED,0
654852.329,0,0,0,1.000,1.000,1.000,-90.00,180.00,-22.50,CLOSED,0
654852.334,0,0,0,1.000,1.000,1.000,-90.00,180.00,-22.50,CLOSED,0
654852.339,0,0,0,1.000,1.000,1.000,-90.00,180.00,-22.50,CLOSED,0
654852.344,0,0,0,1.000,1.000,1.000,-90.00,180.00,-22.50,CLOSED,0
654852.349,0,0,0,1.000,1.000,1.000,-90.00,180.00,-22.50,CLOSED,0
654852.354,0,0,0,1.000,1.000,1.000,-90.00,180.00,-22.50,CLOSED,0
654852.358,0,0,0,1.000,1.000,1.000,-90.00,180.00,-22.50,CLOSED,0
654852.363,0,0,0,1.000,1.000,1.000,-90.00,180.00,-22.50,CLOSED,0
654852.367,0,0,0,1.000,1.000,1.000,-90.00,180.00,-22.50,CLOSED,0
654852.371,0,0,0,1.000,1.000,1.000,-90.00,180.00,-22.50,CLOSED,0
654852.375,0,0,0,1.000,1.000,1.000,-90.00,180.00,-22.50,CLOSED,0
654852.379,0,0,0,1.000,1.000,1.000,-90.00,180.00,-22.50,CLOSED,0
654852.383,0,0,0,1.000,1.000,1.000,-90.00,180.00,-22.50,CLOSED,0
654852.386,0,0,0,1.000,1.000,1.000,-90.00,180.00,-22.50,CLOSED,0
654852.390,0,0,0,1.000,1.000,1.000,-90.00,180.00,-22.50,CLOSED,0
654852.393,0,0,0,1.000,1.000,1.000,-90.00,180.00,-22.50,CLOSED,0
654852.397,0,0,0,1.000,1.000,1.000,-90.00,180.00,-22.50,CLOSED,0
654852.401,0,0,0,1.000,1.000,1.000,-90.00,180.00,-22.50,CLOSED,0
654852.405,0,0,0,1.000,1.000,1.000,-90.00,180.00,-22.50,CLOSED,0
654852.409,0,0,0,1.000,1.000,1.000,-90.00,180.00,-22.50,CLOSED,0
654852.413,0,0,0,1.000,1.000,1.000,-90.00,180.00,-22.50,CLOSED,0
654852.418,0,0,0,1.000,1.000,1.000,-90.00,180.00,-22.50,CLOSED,0
654852.423,0,0,0,1.000,1.000,1.000,-90.00,180.00,-22.50,CLOSED,0
654852.427,0,0,0,1.000,1.000,1.000,-90.00,180.00,-22.50,CLOSED,0
654852.431,0,0,0,1.000,1.000,1.000,-90.00,180.00,-22.50,CLOSED,0
654852.435,0,0,0,1.000,1.000,1.000,-90.00,180.00,-22.50,CLOSED,0
654852.439,0,0,0,1.000,1.000,1.000,-90.00,180.00,-22.50,CLOSED,0
654852.443,0,0,0,1.000,1.000,1.000,-90.00,180.00,-22.50,CLOSED,0
654852.447,0,0,0,1.000,1.000,1.000,-90.00,180.00,-22.50,CLOSED,0
654852.451,0,0,0,1.000,1.000,1.000,-90.00,180.00,-22.50,CLOSED,0
654852.454,0,0,0,1.000,1.000,1.000,-90.00,180.00,-22.50,CLOSED,0
654852.458,0,0,0,1.000,1.000,1.000,-90.00,180.00,-22.50,CLOSED,0
654852.463,0,0,0,1.000,1.000,1.000,-90.00,180.00,-22.50,CLOSED,0
654852.467,0,0,0,1.000,1.000,1.000,-90.00,180.00,-22.50,CLOSED,0
654852.471,0,0,0,1.000,1.000,1.000,-90.00,180.00,-22.50,CLOSED,0
654852.475,0,0,0,1.000,1.000,1.000,-90.00,180.00,-22.50,CLOSED,0
654852.479,0,0,0,1.000,1.000,1.000,-90.00,180.00,-22.50,CLOSED,0
654852.483,0,0,0,1.000,1.000,1.000,-90.00,180.00,-22.50,CLOSED,0
654852.488,0,0,0,1.000,1.000,1.000,-90.00,180.00,-22.50,CLOSED,0
654852.492,0,0,0,1.000,1.000,1.000,-90.00,180.00,-22.50,CLOSED,0
654852.497,0,0,0,1.000,1.000,1.000,-90.00,180.00,-22.50,CLOSED,0
654852.501,0,0,0,1.000,1.000,1.000,-90.00,180.00,-22.50,CLOSED,0
654852.506,0,0,0,1.000,1.000,1.000,-90.00,180.00,-22.50,CLOSED,0
654852.510,0,0,0,1.000,1.000,1.000,-90.00,180.00,-22.50,CLOSED,0
654852.515,0,0,0,0.999,1.000,1.000,-90.00,180.00,-22.50,CLOSED,0
654852.520,0,0,0,0.992,1.000,1.000,-90.00,180.00,-22.50,CLOSED,0
654852.524,0,0,0,0.991,1.000,1.000,-90.00,180.00,-22.50,CLOSED,0
654852.528,0,0,0,0.997,1.000,1.000,-90.00,180.00,-22.50,CLOSED,0
654852.533,0,0,0,0.992,1.000,1.000,-90.00,180.00,-22.50,CLOSED,0
654852.537,0,0,0,0.989,1.000,1.000,-90.00,180.00,-22.50,CLOSED,0
654852.541,0,0,0,0.995,1.000,1.000,-90.00,180.00,-22.50,CLOSED,0
654852.545,0,0,0,0.987,1.000,1.000,-90.00,180.00,-22.50,CLOSED,0
654852.549,0,0,0,0.986,1.000,1.000,-90.00,180.00,-22.50,CLOSED,0
654852.553,0,0,0,0.989,1.000,1.000,-90.00,180.00,-22.50,CLOSED,0
654852.556,0,0,0,0.998,0.999,1.000,-90.00,180.00,-22.50,CLOSED,0
654852.560,0,0,0,0.999,0.950,1.000,-90.00,180.00,-22.50,CLOSED,0
654852.566,0,0,0,0.999,0.765,1.000,-90.00,180.00,-22.50,CLOSED,0
654852.571,0,0,0,0.995,0.989,1.000,-90.00,180.00,-22.50,CLOSED,0
654852.576,0,0,0,0.985,0.999,1.000,-90.00,180.00,-22.50,CLOSED,0
654852.581,0,0,0,0.989,1.000,1.000,-90.00,180.00,-22.50,CLOSED,0
654852.586,0,0,0,0.994,1.000,1.000,-90.00,180.00,-22.50,CLOSED,0
654852.591,0,0,0,0.997,1.000,1.000,-90.00,180.00,-22.50,CLOSED,0
654852.596,0,0,0,0.999,1.000,1.000,-90.00,180.00,-22.50,CLOSED,0
654852.600,0,0,0,0.999,1.000,1.000,-90.00,180.00,-22.50,CLOSED,0
654852.604,0,1,0,0.996,1.000,1.000,-90.00,90.00,-22.50,CLOSED,1
654852.608,0,1,0,0.999,1.000,1.000,-90.00,90.00,-22.50,CLOSED,0
654852.612,0,1,0,1.000,1.000,1.000,-90.00,90.00,-22.50,CLOSED,0
654852.616,0,1,0,1.000,1.000,1.000,-90.00,90.00,-22.50,CLOSED,0
654852.620,0,1,0,1.000,1.000,0.999,-90.00,90.00,-22.50,CLOSED,0
654852.623,0,1,0,1.000,1.000,0.998,-90.00,90.00,-22.50,CLOSED,0
654852.627,0,1,0,1.000,1.000,0.996,-90.00,90.00,-22.50,CLOSED,0
654852.631,0,1,0,1.000,1.000,0.994,-90.00,90.00,-22.50,CLOSED,0
654852.635,0,1,0,1.000,1.000,0.993,-90.00,90.00,-22.50,CLOSED,0
654852.639,0,1,0,1.000,1.000,0.992,-90.00,90.00,-22.50,CLOSED,0
654852.642,0,1,0,1.000,1.000,0.990,-90.00,90.00,-22.50,CLOSED,0
654852.646,0,1,0,1.000,1.000,0.988,-90.00,90.00,-22.50,CLOSED,0
654852.650,0,1,0,1.000,1.000,0.987,-90.00,90.00,-22.50,CLOSED,0
654852.654,0,1,0,1.000,1.000,0.986,-90.00,90.00,-22.50,CLOSED,0
654852.658,0,1,0,1.000,1.000,0.986,-90.00,90.00,-22.50,CLOSED,0
654852.662,0,1,0,1.000,1.000,0.989,-90.00,90.00,-22.50,CLOSED,0
654852.666,0,1,0,1.000,1.000,0.991,-90.00,90.00,-22.50,CLOSED,0
654852.670,0,1,0,1.000,1.000,0.993,-90.00,90.00,-22.50,CLOSED,0
654852.675,0,1,0,1.000,0.999,0.994,-90.00,90.00,-22.50,CLOSED,0
654852.679,0,1,0,1.000,0.999,0.994,-90.00,90.00,-22.50,CLOSED,0
654852.684,0,1,0,1.000,0.999,0.994,-90.00,90.00,-22.50,CLOSED,0
654852.689,0,1,0,1.000,0.999,0.994,-90.00,90.00,-22.50,CLOSED,0
654852.693,0,1,0,1.000,0.999,0.993,-90.00,90.00,-22.50,CLOSED,0
654852.696,0,1,0,1.000,0.999,0.993,-90.00,90.00,-22.50,CLOSED,0
654852.700,0,1,0,1.000,0.999,0.991,-90.00,90.00,-22.50,CLOSED,0
654852.704,0,1,0,1.000,0.999,0.989,-90.00,90.00,-22.50,CLOSED,0
654852.708,0,1,0,1.000,1.000,0.989,-90.00,90.00,-22.50,CLOSED,0
654852.713,0,1,0,1.000,1.000,0.988,-90.00,90.00,-22.50,CLOSED,0
654852.717,0,1,0,1.000,1.000,0.991,-90.00,90.00,-22.50,CLOSED,0
654852.720,0,1,0,1.000,1.000,0.995,-90.00,90.00,-22.50,CLOSED,0
654852.724,0,1,0,1.000,1.000,0.997,-90.00,90.00,-22.50,CLOSED,0
654852.728,0,1,0,1.000,1.000,0.998,-90.00,90.00,-22.50,CLOSED,0
654852.732,0,1,0,1.000,1.000,0.999,-90.00,90.00,-22.50,CLOSED,0
654852.735,0,1,0,1.000,1.000,0.999,-90.00,90.00,-22.50,CLOSED,0
654852.739,0,1,0,1.000,1.000,0.999,-90.00,90.00,-22.50,CLOSED,0
654852.743,0,1,0,1.000,1.000,0.999,-90.00,90.00,-22.50,CLOSED,0
654852.747,0,1,0,1.000,1.000,0.999,-90.00,90.00,-22.50,CLOSED,0
654852.751,0,1,0,1.000,1.000,0.998,-90.00,90.00,-22.50,CLOSED,0
654852.755,0,1,0,1.000,1.000,0.997,-90.00,90.00,-22.50,CLOSED,0
654852.759,0,1,0,1.000,1.000,0.994,-90.00,90.00,-22.50,CLOSED,0
654852.762,0,1,0,1.000,0.999,0.988,-90.00,90.00,-22.50,CLOSED,0
654852.766,0,1,0,1.000,0.999,0.982,-90.00,90.00,-22.50,CLOSED,0
654852.770,0,1,0,1.000,0.998,0.985,-90.00,90.00,-22.50,CLOSED,0
654852.773,0,1,0,1.000,0.997,0.991,-90.00,90.00,-22.50,CLOSED,0
654852.777,0,1,0,1.000,0.997,0.995,-90.00,90.00,-22.50,CLOSED,0
654852.781,0,1,0,1.000,0.996,0.997,-90.00,90.00,-22.50,CLOSED,0
654852.786,0,1,0,1.000,0.995,0.998,-90.00,90.00,-22.50,CLOSED,0
654852.790,0,1,0,1.000,0.996,0.999,-90.00,90.00,-22.50,CLOSED,0
654852.794,0,1,0,1.000,0.997,0.998,-90.00,90.00,-22.50,CLOSED,0
654852.799,0,1,0,1.000,0.997,0.998,-90.00,90.00,-22.50,CLOSED,0
654852.803,0,1,0,1.000,0.998,0.997,-90.00,90.00,-22.50,CLOSED,0
654852.806,0,1,0,1.000,0.998,0.994,-90.00,90.00,-22.50,CLOSED,0
654852.811,0,1,0,1.000,0.999,0.988,-90.00,90.00,-22.50,CLOSED,0
654852.815,0,1,0,1.000,0.999,0.979,-90.00,90.00,-22.50,CLOSED,0
654852.819,0,1,0,1.000,0.999,0.976,-90.00,90.00,-22.50,CLOSED,0
654852.823,0,1,0,1.000,0.999,0.981,-90.00,90.00,-22.50,CLOSED,0
654852.828,0,1,0,1.000,0.999,0.984,-90.00,90.00,-22.50,CLOSED,0
654852.832,0,1,0,1.000,0.998,0.988,-90.00,90.00,-22.50,CLOSED,0
654852.837,0,1,0,1.000,0.998,0.993,-90.00,90.00,-22.50,CLOSED,0
654852.841,0,1,0,1.000,0.998,0.995,-90.00,90.00,-22.50,CLOSED,0
654852.845,0,1,0,1.000,0.998,0.997,-90.00,90.00,-22.50,CLOSED,0
654852.849,0,1,0,1.000,0.999,0.998,-90.00,90.00,-22.50,CLOSED,0
654852.853,0,1,0,1.000,0.999,0.998,-90.00,90.00,-22.50,CLOSED,0
654852.857,0,1,0,1.000,0.999,0.999,-90.00,90.00,-22.50,CLOSED,0
654852.861,0,1,0,1.000,0.999,0.999,-90.00,90.00,-22.50,CLOSED,0
654852.865,0,1,0,1.000,1.000,0.999,-90.00,90.00,-22.50,CLOSED,0
654852.869,0,1,0,1.000,1.000,0.998,-90.00,90.00,-22.50,CLOSED,0
654852.873,0,1,0,1.000,1.000,0.998,-90.00,90.00,-22.50,CLOSED,0
654852.877,0,1,0,1.000,1.000,0.998,-90.00,90.00,-22.50,CLOSED,0
654852.882,0,1,0,1.000,1.000,0.999,-90.00,90.00,-22.50,CLOSED,0
654852.885,0,1,0,1.000,1.000,0.999,-90.00,90.00,-22.50,CLOSED,0
654852.889,0,1,0,1.000,1.000,1.000,-90.00,90.00,-22.50,CLOSED,0
654852.893,0,1,0,1.000,1.000,1.000,-90.00,90.00,-22.50,CLOSED,0
654852.897,0,1,0,1.000,1.000,1.000,-90.00,90.00,-22.50,CLOSED,0
654852.901,0,1,0,1.000,1.000,1.000,-90.00,90.00,-22.50,CLOSED,0
654852.905,0,1,0,1.000,1.000,1.000,-90.00,90.00,-22.50,CLOSED,0
654852.909,0,1,0,1.000,1.000,1.000,-90.00,90.00,-22.50,CLOSED,0
654852.913,0,1,0,1.000,1.000,1.000,-90.00,90.00,-22.50,CLOSED,0
654852.917,0,1,0,1.000,1.000,1.000,-90.00,90.00,-22.50,CLOSED,0
654852.921,0,1,0,1.000,1.000,1.000,-90.00,90.00,-22.50,CLOSED,0
654852.926,0,1,0,1.000,1.000,1.000,-90.00,90.00,-22.50,CLOSED,0
654852.931,0,1,0,1.000,1.000,0.999,-90.00,90.00,-22.50,CLOSED,0
654852.934,0,1,0,1.000,1.000,0.999,-90.00,90.00,-22.50,CLOSED,0
654852.938,0,1,0,1.000,1.000,0.999,-90.00,90.00,-22.50,CLOSED,0
654852.942,0,1,0,1.000,1.000,0.999,-90.00,90.00,-22.50,CLOSED,0
654852.946,0,1,0,1.000,1.000,0.999,-90.00,90.00,-22.50,CLOSED,0
654852.950,0,1,0,1.000,1.000,0.999,-90.00,90.00,-22.50,CLOSED,0
654852.954,0,1,0,1.000,1.000,0.999,-90.00,90.00,-22.50,CLOSED,0
654852.958,0,1,0,1.000,1.000,0.999,-90.00,90.00,-22.50,CLOSED,0
654852.961,0,1,0,1.000,1.000,0.999,-90.00,90.00,-22.50,CLOSED,0
654852.965,0,1,0,1.000,1.000,0.999,-90.00,90.00,-22.50,CLOSED,0
654852.969,0,1,0,1.000,1.000,0.998,-90.00,90.00,-22.50,CLOSED,0
654852.973,0,1,0,1.000,1.000,0.996,-90.00,90.00,-22.50,CLOSED,0
654852.977,0,1,0,1.000,0.999,0.992,-90.00,90.00,-22.50,CLOSED,0
654852.981,0,1,0,1.000,0.998,0.985,-90.00,90.00,-22.50,CLOSED,0
654852.985,0,1,0,1.000,0.988,0.978,-90.00,90.00,-22.50,CLOSED,0
654852.989,0,1,0,1.000,0.924,0.974,-90.00,90.00,-22.50,CLOSED,0
654852.993,0,1,0,1.000,0.623,0.976,-90.00,90.00,-22.50,CLOSED,0
654852.997,0,1,0,1.000,0.959,0.989,-90.00,90.00,-22.50,CLOSED,0
654853.000,0,1,0,1.000,0.995,0.995,-90.00,90.00,-22.50,CLOSED,0
654853.004,0,1,0,1.000,0.999,0.996,-90.00,90.00,-22.50,CLOSED,0
654853.008,0,1,0,1.000,1.000,0.998,-90.00,90.00,-22.50,CLOSED,0
654853.012,0,1,0,1.000,1.000,0.998,-90.00,90.00,-22.50,CLOSED,0
654853.017,0,1,0,1.000,1.000,0.999,-90.00,90.00,-22.50,CLOSED,0
654853.021,0,1,0,1.000,1.000,0.999,-90.00,90.00,-22.50,CLOSED,0
654853.025,0,0,0,1.000,1.000,0.999,-90.00,180.00,-22.50,CLOSED,1
654853.030,0,0,0,1.000,0.999,1.000,-90.00,180.00,-22.50,CLOSED,0
654853.034,0,0,0,1.000,0.999,1.000,-90.00,180.00,-22.50,CLOSED,0
654853.039,0,0,0,1.000,0.998,1.000,-90.00,180.00,-22.50,CLOSED,0
654853.043,0,0,0,1.000,0.996,1.000,-90.00,180.00,-22.50,CLOSED,0
654853.048,0,0,0,0.999,0.994,1.000,-90.00,180.00,-22.50,CLOSED,0
654853.053,0,0,0,0.999,0.986,1.000,-90.00,180.00,-22.50,CLOSED,0
654853.058,0,0,0,0.999,0.981,1.000,-90.00,180.00,-22.50,CLOSED,0
654853.062,0,0,0,0.999,0.985,1.000,-90.00,180.00,-22.50,CLOSED,0
654853.066,0,0,0,0.999,0.996,1.000,-90.00,180.00,-22.50,CLOSED,0
654853.070,0,0,0,0.997,0.996,1.000,-90.00,180.00,-22.50,CLOSED,0
654853.074,0,0,0,0.997,1.000,1.000,-90.00,180.00,-22.50,CLOSED,0
654853.077,0,0,0,0.994,1.000,1.000,-90.00,180.00,-22.50,CLOSED,0
654853.081,0,0,0,0.998,1.000,1.000,-90.00,180.00,-22.50,CLOSED,0
654853.085,0,0,0,0.999,1.000,1.000,-90.00,180.00,-22.50,CLOSED,0
654853.089,0,0,0,1.000,1.000,1.000,-90.00,180.00,-22.50,CLOSED,0
654853.093,0,0,0,1.000,1.000,1.000,-90.00,180.00,-22.50,CLOSED,0
654853.097,0,0,0,1.000,1.000,1.000,-90.00,180.00,-22.50,CLOSED,0
654853.101,0,0,0,1.000,1.000,1.000,-90.00,180.00,-22.50,CLOSED,0
654853.105,0,0,0,0.999,1.000,1.000,-90.00,180.00,-22.50,CLOSED,0
654853.111,0,0,0,1.000,1.000,1.000,-90.00,180.00,-22.50,CLOSED,0
654853.116,0,0,0,1.000,1.000,1.000,-90.00,180.00,-22.50,CLOSED,0
654853.121,0,0,0,1.000,1.000,1.000,-90.00,180.00,-22.50,CLOSED,0
654853.126,0,0,0,1.000,1.000,1.000,-90.00,180.00,-22.50,CLOSED,0
654853.131,0,0,0,1.000,1.000,1.000,-90.00,180.00,-22.50,CLOSED,0
654853.135,0,0,0,1.000,1.000,1.000,-90.00,180.00,-22.50,CLOSED,0
654853.139,0,0,0,1.000,1.000,1.000,-90.00,180.00,-22.50,CLOSED,0
654853.143,0,0,0,1.000,1.000,1.000,-90.00,180.00,-22.50,CLOSED,0
654853.147,0,0,0,1.000,1.000,1.000,-90.00,180.00,-22.50,CLOSED,0
654853.150,0,0,0,1.000,1.000,1.000,-90.00,180.00,-22.50,CLOSED,0
654853.155,0,0,0,1.000,1.000,1.000,-90.00,180.00,-22.50,CLOSED,0
654853.160,0,0,0,1.000,1.000,1.000,-90.00,180.00,-22.50,CLOSED,0
654853.164,0,0,0,1.000,1.000,1.000,-90.00,180.00,-22.50,CLOSED,0
654853.168,0,0,0,1.000,1.000,1.000,-90.00,180.00,-22.50,CLOSED,0
654853.172,0,0,0,1.000,1.000,1.000,-90.00,180.00,-22.50,CLOSED,0
654853.176,0,0,0,1.000,1.000,1.000,-90.00,180.00,-22.50,CLOSED,0
654853.181,0,0,0,1.000,1.000,1.000,-90.00,180.00,-22.50,CLOSED,0
654853.187,0,0,0,1.000,1.000,1.000,-90.00,180.00,-22.50,CLOSED,0
654853.192,0,0,0,1.000,1.000,1.000,-90.00,180.00,-22.50,CLOSED,0
654853.198,0,0,0,1.000,1.000,1.000,-90.00,180.00,-22.50,CLOSED,0
654853.204,0,0,0,1.000,1.000,1.000,-90.00,180.00,-22.50,CLOSED,0
654853.209,0,0,0,1.000,1.000,1.000,-90.00,180.00,-22.50,CLOSED,0
654853.214,0,0,0,1.000,1.000,1.000,-90.00,180.00,-22.50,CLOSED,0
654853.219,0,0,0,1.000,1.000,1.000,-90.00,180.00,-22.50,CLOSED,0
654853.223,0,0,0,1.000,1.000,1.000,-90.00,180.00,-22.50,CLOSED,0
654853.228,0,0,0,1.000,1.000,1.000,-90.00,180.00,-22.50,CLOSED,0
654853.232,0,0,0,1.000,1.000,1.000,-90.00,180.00,-22.50,CLOSED,0
654853.236,0,0,0,1.000,1.000,1.000,-90.00,180.00,-22.50,CLOSED,0
654853.240,0,0,0,1.000,1.000,1.000,-90.00,180.00,-22.50,CLOSED,0
654853.244,0,0,0,1.000,1.000,1.000,-90.00,180.00,-22.50,CLOSED,0
654853.248,0,0,0,1.000,1.000,1.000,-90.00,180.00,-22.50,CLOSED,0
654853.252,0,0,0,1.000,1.000,1.000,-90.00,180.00,-22.50,CLOSED,0
654853.258,0,0,0,1.000,1.000,1.000,-90.00,180.00,-22.50,CLOSED,0
654853.264,0,0,0,1.000,1.000,1.000,-90.00,180.00,-22.50,CLOSED,0
654853.268,0,0,0,1.000,1.000,1.000,-90.00,180.00,-22.50,CLOSED,0
654853.273,0,0,0,1.000,1.000,1.000,-90.00,180.00,-22.50,CLOSED,0
654853.278,0,0,0,1.000,1.000,1.000,-90.00,180.00,-22.50,CLOSED,0
654853.283,0,0,0,1.000,1.000,1.000,-90.00,180.00,-22.50,CLOSED,0
654853.287,0,0,0,1.000,1.000,1.000,-90.00,180.00,-22.50,CLOSED,0
654853.291,0,0,0,1.000,1.000,1.000,-90.00,180.00,-22.50,CLOSED,0
654853.296,0,0,0,1.000,1.000,1.000,-90.00,180.00,-22.50,CLOSED,0
654853.300,0,0,0,1.000,1.000,1.000,-90.00,180.00,-22.50,CLOSED,0
654853.304,0,0,0,1.000,1.000,1.000,-90.00,180.00,-22.50,CLOSED,0
654853.308,0,0,0,1.000,1.000,1.000,-90.00,180.00,-22.50,CLOSED,0
654853.313,0,0,0,1.000,1.000,1.000,-90.00,180.00,-22.50,CLOSED,0
654853.317,0,0,0,1.000,1.000,1.000,-90.00,180.00,-22.50,CLOSED,0
654853.321,0,0,0,1.000,1.000,1.000,-90.00,180.00,-22.50,CLOSED,0
654853.325,0,0,0,1.000,1.000,1.000,-90.00,180.00,-22.50,CLOSED,0
654853.329,0,0,0,1.000,1.000,1.000,-90.00,180.00,-22.50,CLOSED,0
654853.333,0,0,0,1.000,1.000,1.000,-90.00,180.00,-22.50,CLOSED,0
654853.337,0,0,0,1.000,1.000,1.000,-90.00,180.00,-22.50,CLOSED,0
654853.340,0,0,0,1.000,1.000,1.000,-90.00,180.00,-22.50,CLOSED,0
654853.344,0,0,0,1.000,1.000,1.000,-90.00,180.00,-22.50,CLOSED,0
654853.348,0,0,0,1.000,1.000,1.000,-90.00,180.00,-22.50,CLOSED,0
654853.352,0,0,0,1.000,1.000,1.000,-90.00,180.00,-22.50,CLOSED,0
654853.356,0,0,0,1.000,1.000,1.000,-90.00,180.00,-22.50,CLOSED,0
654853.360,0,0,0,1.000,1.000,1.000,-90.00,180.00,-22.50,CLOSED,0
654853.364,0,0,0,1.000,1.000,1.000,-90.00,180.00,-22.50,CLOSED,0
654853.369,0,0,0,1.000,1.000,1.000,-90.00,180.00,-22.50,CLOSED,0
654853.373,0,0,0,1.000,1.000,1.000,-90.00,180.00,-22.50,CLOSED,0
654853.378,0,0,0,1.000,1.000,1.000,-90.00,180.00,-22.50,CLOSED,0
654853.381,0,0,0,1.000,1.000,1.000,-90.00,180.00,-22.50,CLOSED,0
654853.386,0,0,0,1.000,1.000,1.000,-90.00,180.00,-22.50,CLOSED,0
654853.389,0,0,0,1.000,1.000,1.000,-90.00,180.00,-22.50,CLOSED,0
654853.393,0,0,0,1.000,1.000,1.000,-90.00,180.00,-22.50,CLOSED,0
654853.397,0,0,0,1.000,1.000,1.000,-90.00,180.00,-22.50,CLOSED,0
654853.401,0,0,0,1.000,1.000,1.000,-90.00,180.00,-22.50,CLOSED,0
654853.405,0,0,0,1.000,1.000,1.000,-90.00,180.00,-22.50,CLOSED,0
654853.409,0,0,0,1.000,1.000,1.000,-90.00,180.00,-22.50,CLOSED,0
654853.412,0,0,0,1.000,1.000,1.000,-90.00,180.00,-22.50,CLOSED,0
654853.416,0,0,0,1.000,1.000,1.000,-90.00,180.00,-22.50,CLOSED,0
654853.420,0,0,0,1.000,1.000,1.000,-90.00,180.00,-22.50,CLOSED,0
654853.425,0,0,0,1.000,1.000,1.000,-90.00,180.00,-22.50,CLOSED,0
654853.428,0,0,0,1.000,1.000,1.000,-90.00,180.00,-22.50,CLOSED,0
654853.432,0,0,0,1.000,1.000,1.000,-90.00,180.00,-22.50,CLOSED,0
654853.436,0,0,0,1.000,1.000,1.000,-90.00,180.00,-22.50,CLOSED,0
654853.440,0,0,0,1.000,1.000,1.000,-90.00,180.00,-22.50,CLOSED,0
654853.444,0,0,0,1.000,1.000,1.000,-90.00,180.00,-22.50,CLOSED,0
654853.449,0,0,0,1.000,1.000,1.000,-90.00,180.00,-22.50,CLOSED,0
654853.453,0,0,0,1.000,1.000,1.000,-90.00,180.00,-22.50,CLOSED,0
654853.457,0,0,0,1.000,1.000,1.000,-90.00,180.00,-22.50,CLOSED,0
654853.462,0,0,0,1.000,1.000,1.000,-90.00,180.00,-22.50,CLOSED,0
654853.466,0,0,0,1.000,1.000,1.000,-90.00,180.00,-22.50,CLOSED,0
654853.470,0,0,0,1.000,1.000,1.000,-90.00,180.00,-22.50,CLOSED,0
654853.475,0,0,0,1.000,1.000,1.000,-90.00,180.00,-22.50,CLOSED,0
654853.480,0,0,0,1.000,1.000,1.000,-90.00,180.00,-22.50,CLOSED,0
654853.484,0,0,0,1.000,1.000,1.000,-90.00,180.00,-22.50,CLOSED,0
654853.488,0,0,0,1.000,1.000,1.000,-90.00,180.00,-22.50,CLOSED,0
654853.491,0,0,0,1.000,1.000,1.000,-90.00,180.00,-22.50,CLOSED,0
654853.495,0,0,0,1.000,1.000,1.000,-90.00,180.00,-22.50,CLOSED,0
654853.499,0,0,0,1.000,1.000,1.000,-90.00,180.00,-22.50,CLOSED,0
654853.503,0,0,0,1.000,1.000,1.000,-90.00,180.00,-22.50,CLOSED,0
654853.506,0,0,0,1.000,1.000,1.000,-90.00,180.00,-22.50,CLOSED,0
654853.510,0,0,0,1.000,1.000,1.000,-90.00,180.00,-22.50,CLOSED,0
654853.514,0,0,0,1.000,1.000,1.000,-90.00,180.00,-22.50,CLOSED,0
654853.518,0,0,0,1.000,1.000,1.000,-90.00,180.00,-22.50,CLOSED,0
654853.522,0,0,0,1.000,1.000,1.000,-90.00,180.00,-22.50,CLOSED,0
654853.526,0,0,0,1.000,1.000,1.000,-90.00,180.00,-22.50,CLOSED,0
654853.530,0,0,0,1.000,1.000,1.000,-90.00,180.00,-22.50,CLOSED,0
654853.535,0,0,0,1.000,1.000,1.000,-90.00,180.00,-22.50,CLOSED,0
654853.539,0,0,0,1.000,1.000,1.000,-90.00,180.00,-22.50,CLOSED,0
654853.543,0,0,0,1.000,1.000,1.000,-90.00,180.00,-22.50,CLOSED,0
654853.547,0,0,0,1.000,1.000,1.000,-90.00,180.00,-22.50,CLOSED,0
654853.551,0,0,0,1.000,1.000,1.000,-90.00,180.00,-22.50,CLOSED,0
654853.555,0,0,0,1.000,1.000,1.000,-90.00,180.00,-22.50,CLOSED,0
654853.559,0,0,0,1.000,1.000,1.000,-90.00,180.00,-22.50,CLOSED,0
654853.564,0,0,0,1.000,1.000,1.000,-90.00,180.00,-22.50,CLOSED,0
654853.569,0,0,0,1.000,1.000,1.000,-90.00,180.00,-22.50,CLOSED,0
654853.574,0,0,0,1.000,1.000,1.000,-90.00,180.00,-22.50,CLOSED,0
654853.579,0,0,0,1.000,1.000,1.000,-90.00,180.00,-22.50,CLOSED,0
654853.583,0,0,0,1.000,1.000,1.000,-90.00,180.00,-22.50,CLOSED,0
654853.588,0,0,0,1.000,1.000,1.000,-90.00,180.00,-22.50,CLOSED,0
654853.594,0,0,0,1.000,1.000,1.000,-90.00,180.00,-22.50,CLOSED,0
654853.598,0,0,0,1.000,1.000,1.000,-90.00,180.00,-22.50,CLOSED,0
654853.603,0,0,0,1.000,1.000,1.000,-90.00,180.00,-22.50,CLOSED,0
654853.607,0,0,0,1.000,1.000,1.000,-90.00,180.00,-22.50,CLOSED,0
654853.611,0,0,0,1.000,1.000,1.000,-90.00,180.00,-22.50,CLOSED,0
654853.615,0,0,0,1.000,1.000,1.000,-90.00,180.00,-22.50,CLOSED,0
654853.619,0,0,0,1.000,1.000,1.000,-90.00,180.00,-22.50,CLOSED,0
654853.622,0,0,0,0.999,1.000,1.000,-90.00,180.00,-22.50,CLOSED,0
654853.626,0,0,0,0.858,1.000,1.000,-90.00,180.00,-22.50,CLOSED,0
654853.630,0,0,0,0.484,1.000,1.000,-90.00,180.00,-22.50,CLOSED,0
654853.634,0,0,0,0.481,1.000,1.000,-90.00,180.00,-22.50,CLOSED,0
654853.639,0,0,0,0.604,1.000,1.000,-90.00,180.00,-22.50,CLOSED,0
654853.642,0,0,0,0.670,1.000,1.000,-90.00,180.00,-22.50,CLOSED,0
654853.646,0,0,0,0.776,1.000,1.000,-90.00,180.00,-22.50,CLOSED,0
654853.651,0,0,0,0.937,1.000,1.000,-90.00,180.00,-22.50,CLOSED,0
654853.656,0,0,0,0.997,1.000,1.000,-90.00,180.00,-22.50,CLOSED,0
654853.661,0,0,0,1.000,1.000,1.000,-90.00,180.00,-22.50,CLOSED,0
654853.667,0,0,0,1.000,1.000,1.000,-90.00,180.00,-22.50,CLOSED,0
654853.672,0,0,0,1.000,1.000,1.000,-90.00,180.00,-22.50,CLOSED,0
654853.677,3,0,0,1.000,1.000,1.000,-90.00,180.00,-22.50,OPEN,0
654853.682,3,0,0,1.000,1.000,1.000,-90.00,180.00,-22.50,OPEN,0
654853.687,3,0,0,1.000,1.000,1.000,-90.00,180.00,-22.50,OPEN,0
654853.691,3,0,0,1.000,1.000,1.000,-90.00,180.00,-22.50,OPEN,0
654853.696,3,0,0,1.000,1.000,1.000,-90.00,180.00,-22.50,OPEN,0
654853.701,3,0,0,1.000,1.000,1.000,-90.00,180.00,-22.50,OPEN,0
654853.705,3,0,0,1.000,1.000,1.000,-90.00,180.00,-22.50,OPEN,0
654853.710,3,0,0,1.000,1.000,1.000,-90.00,180.00,-22.50,OPEN,0
654853.714,3,0,0,1.000,1.000,1.000,-90.00,180.00,-22.50,OPEN,0
654853.718,3,0,0,1.000,1.000,1.000,-90.00,180.00,-22.50,OPEN,0
654853.721,3,0,0,1.000,1.000,1.000,-90.00,180.00,-22.50,OPEN,0
654853.725,3,0,0,1.000,1.000,1.000,-90.00,180.00,-22.50,OPEN,0
654853.729,3,0,0,1.000,1.000,1.000,-90.00,180.00,-22.50,OPEN,0
654853.733,3,0,0,1.000,1.000,1.000,-90.00,180.00,-22.50,OPEN,0
654853.737,3,0,0,1.000,1.000,1.000,-90.00,180.00,-22.50,OPEN,0
654853.741,3,0,0,1.000,1.000,1.000,-90.00,180.00,-22.50,OPEN,0
654853.746,3,0,0,1.000,1.000,1.000,-90.00,180.00,-22.50,OPEN,0
654853.750,3,0,0,1.000,1.000,1.000,-90.00,180.00,-22.50,OPEN,0
654853.755,3,0,0,1.000,1.000,1.000,-90.00,180.00,-22.50,OPEN,0
654853.759,3,0,0,1.000,1.000,1.000,-90.00,180.00,-22.50,OPEN,0
654853.763,3,0,0,1.000,1.000,1.000,-90.00,180.00,-22.50,OPEN,0
654853.768,3,0,0,1.000,1.000,1.000,-90.00,180.00,-22.50,OPEN,0
654853.772,3,0,0,1.000,1.000,1.000,-90.00,180.00,-22.50,OPEN,0
654853.776,3,0,0,1.000,1.000,1.000,-90.00,180.00,-22.50,OPEN,0
654853.780,3,0,0,1.000,1.000,1.000,-90.00,180.00,-22.50,OPEN,0
654853.785,3,0,0,1.000,1.000,1.000,-90.00,180.00,-22.50,OPEN,0
654853.789,3,0,0,1.000,1.000,1.000,-90.00,180.00,-22.50,OPEN,0
654853.793,3,0,0,1.000,1.000,1.000,-90.00,180.00,-22.50,OPEN,0
654853.797,3,0,0,1.000,1.000,1.000,-90.00,180.00,-22.50,OPEN,0
654853.801,3,0,0,1.000,1.000,1.000,-90.00,180.00,-22.50,OPEN,0
654853.805,3,0,0,1.000,1.000,1.000,-90.00,180.00,-22.50,OPEN,0
654853.810,3,0,0,1.000,1.000,1.000,-90.00,180.00,-22.50,OPEN,0
654853.815,3,0,0,1.000,1.000,1.000,-90.00,180.00,-22.50,OPEN,0
654853.820,3,0,0,1.000,1.000,1.000,-90.00,180.00,-22.50,OPEN,0
654853.824,3,0,0,1.000,1.000,1.000,-90.00,180.00,-22.50,OPEN,0
654853.828,3,0,0,1.000,1.000,1.000,-90.00,180.00,-22.50,OPEN,0
654853.832,3,0,0,1.000,1.000,1.000,-90.00,180.00,-22.50,OPEN,0
654853.836,3,0,0,1.000,1.000,1.000,-90.00,180.00,-22.50,OPEN,0
654853.841,3,0,0,1.000,1.000,1.000,-90.00,180.00,-22.50,OPEN,0
654853.845,3,0,0,1.000,1.000,1.000,-90.00,180.00,-22.50,OPEN,0
654853.851,3,0,0,1.000,1.000,1.000,-90.00,180.00,-22.50,OPEN,0
654853.855,3,0,0,1.000,1.000,1.000,-90.00,180.00,-22.50,OPEN,0
654853.859,3,0,0,1.000,1.000,1.000,-90.00,180.00,-22.50,OPEN,0
654853.863,3,0,0,1.000,1.000,1.000,-90.00,180.00,-22.50,OPEN,0
654853.867,3,0,0,1.000,1.000,1.000,-90.00,180.00,-22.50,OPEN,0
654853.871,3,0,0,1.000,1.000,1.000,-90.00,180.00,-22.50,OPEN,0
654853.876,3,0,0,1.000,1.000,1.000,-90.00,180.00,-22.50,OPEN,0
654853.880,3,0,0,1.000,1.000,1.000,-90.00,180.00,-22.50,OPEN,0
654853.884,3,0,0,1.000,1.000,1.000,-90.00,180.00,-22.50,OPEN,0
654853.889,3,0,0,1.000,1.000,1.000,-90.00,180.00,-22.50,OPEN,0
654853.893,3,0,0,1.000,1.000,1.000,-90.00,180.00,-22.50,OPEN,0
654853.897,3,0,0,1.000,1.000,1.000,-90.00,180.00,-22.50,OPEN,0
654853.901,3,0,0,1.000,1.000,1.000,-90.00,180.00,-22.50,OPEN,0
654853.906,3,0,0,1.000,1.000,1.000,-90.00,180.00,-22.50,OPEN,0
654853.910,3,0,0,1.000,1.000,1.000,-90.00,180.00,-22.50,OPEN,0
654853.914,3,0,0,1.000,1.000,1.000,-90.00,180.00,-22.50,OPEN,0
654853.919,3,0,0,1.000,1.000,1.000,-90.00,180.00,-22.50,OPEN,0
654853.923,3,0,0,1.000,1.000,1.000,-90.00,180.00,-22.50,OPEN,0
654853.927,3,0,0,1.000,1.000,1.000,-90.00,180.00,-22.50,OPEN,0
654853.932,3,0,0,1.000,1.000,1.000,-90.00,180.00,-22.50,OPEN,0
654853.937,3,0,0,1.000,1.000,1.000,-90.00,180.00,-22.50,OPEN,0
654853.941,3,0,0,1.000,1.000,1.000,-90.00,180.00,-22.50,OPEN,0
654853.945,3,0,0,1.000,1.000,1.000,-90.00,180.00,-22.50,OPEN,0
654853.950,3,0,0,1.000,1.000,1.000,-90.00,180.00,-22.50,OPEN,0
654853.954,3,0,0,1.000,1.000,1.000,-90.00,180.00,-22.50,OPEN,0
654853.958,3,0,0,1.000,1.000,1.000,-90.00,180.00,-22.50,OPEN,0
654853.963,3,0,0,1.000,1.000,1.000,-90.00,180.00,-22.50,OPEN,0
654853.967,3,0,0,1.000,1.000,1.000,-90.00,180.00,-22.50,OPEN,0
654853.972,3,0,0,1.000,1.000,1.000,-90.00,180.00,-22.50,OPEN,0
654853.977,3,0,0,1.000,1.000,1.000,-90.00,180.00,-22.50,OPEN,0
654853.981,3,0,0,1.000,1.000,1.000,-90.00,180.00,-22.50,OPEN,0
654853.985,3,0,0,1.000,1.000,1.000,-90.00,180.00,-22.50,OPEN,0
654853.989,3,0,0,1.000,1.000,1.000,-90.00,180.00,-22.50,OPEN,0
654853.993,3,0,0,1.000,1.000,1.000,-90.00,180.00,-22.50,OPEN,0
654853.998,3,0,0,1.000,1.000,1.000,-90.00,180.00,-22.50,OPEN,0
654854.002,3,0,0,1.000,1.000,1.000,-90.00,180.00,-22.50,OPEN,0
654854.006,3,0,0,1.000,1.000,1.000,-90.00,180.00,-22.50,OPEN,0
654854.010,3,0,0,1.000,1.000,1.000,-90.00,180.00,-22.50,OPEN,0
654854.015,3,0,0,1.000,1.000,1.000,-90.00,180.00,-22.50,OPEN,0
654854.019,3,0,0,1.000,1.000,1.000,-90.00,180.00,-22.50,OPEN,0
654854.023,3,0,0,1.000,1.000,1.000,-90.00,180.00,-22.50,OPEN,0
654854.027,3,0,0,1.000,1.000,1.000,-90.00,180.00,-22.50,OPEN,0
654854.031,3,0,0,1.000,1.000,1.000,-90.00,180.00,-22.50,OPEN,0
654854.035,3,0,0,1.000,1.000,1.000,-90.00,180.00,-22.50,OPEN,0
654854.040,3,0,0,1.000,1.000,1.000,-90.00,180.00,-22.50,OPEN,0
654854.045,3,0,0,1.000,1.000,1.000,-90.00,180.00,-22.50,OPEN,0
654854.050,3,0,0,1.000,1.000,1.000,-90.00,180.00,-22.50,OPEN,0
654854.055,3,0,0,1.000,1.000,1.000,-90.00,180.00,-22.50,OPEN,0
654854.060,3,0,0,1.000,1.000,1.000,-90.00,180.00,-22.50,OPEN,0
654854.065,3,0,0,1.000,1.000,1.000,-90.00,180.00,-22.50,OPEN,0
654854.069,3,0,0,1.000,1.000,1.000,-90.00,180.00,-22.50,OPEN,0
654854.073,3,0,0,1.000,1.000,1.000,-90.00,180.00,-22.50,OPEN,0
654854.078,3,0,0,1.000,1.000,1.000,-90.00,180.00,-22.50,OPEN,0
654854.083,3,0,0,1.000,1.000,1.000,-90.00,180.00,-22.50,OPEN,0
654854.087,3,0,0,1.000,1.000,1.000,-90.00,180.00,-22.50,OPEN,0
654854.092,3,0,0,1.000,1.000,1.000,-90.00,180.00,-22.50,OPEN,0
654854.097,3,0,0,1.000,1.000,1.000,-90.00,180.00,-22.50,OPEN,0
654854.102,3,0,0,1.000,1.000,1.000,-90.00,180.00,-22.50,OPEN,0
654854.106,3,0,0,1.000,1.000,1.000,-90.00,180.00,-22.50,OPEN,0
654854.111,3,0,0,1.000,1.000,1.000,-90.00,180.00,-22.50,OPEN,0
654854.116,3,0,0,1.000,1.000,1.000,-90.00,180.00,-22.50,OPEN,0
654854.121,3,0,0,1.000,1.000,1.000,-90.00,180.00,-22.50,OPEN,0
654854.125,3,0,0,1.000,1.000,1.000,-90.00,180.00,-22.50,OPEN,0
654854.130,3,0,0,1.000,1.000,1.000,-90.00,180.00,-22.50,OPEN,0
654854.134,3,0,0,1.000,1.000,1.000,-90.00,180.00,-22.50,OPEN,0
654854.139,3,0,0,1.000,1.000,1.000,-90.00,180.00,-22.50,OPEN,0
654854.144,3,0,0,1.000,1.000,1.000,-90.00,180.00,-22.50,OPEN,0
654854.148,3,0,0,0.999,1.000,1.000,-90.00,180.00,-22.50,OPEN,0
654854.154,3,0,0,0.975,1.000,1.000,-90.00,180.00,-22.50,OPEN,0
654854.160,3,0,0,0.869,1.000,1.000,-90.00,180.00,-22.50,OPEN,0
654854.165,3,0,0,0.666,1.000,1.000,-90.00,180.00,-22.50,OPEN,0
654854.169,3,0,0,0.511,1.000,1.000,-90.00,180.00,-22.50,OPEN,0
654854.174,3,0,0,0.589,1.000,1.000,-90.00,180.00,-22.50,OPEN,0
654854.178,3,0,0,0.639,1.000,1.000,-90.00,180.00,-22.50,OPEN,0
654854.183,3,0,0,0.562,1.000,1.000,-90.00,180.00,-22.50,OPEN,0
654854.188,3,0,0,0.920,1.000,1.000,-90.00,180.00,-22.50,OPEN,0
654854.192,3,0,0,1.000,1.000,1.000,-90.00,180.00,-22.50,OPEN,0
654854.196,3,0,0,1.000,1.000,1.000,-90.00,180.00,-22.50,OPEN,0
654854.200,3,0,0,1.000,1.000,1.000,-90.00,180.00,-22.50,OPEN,0
654854.204,3,0,0,1.000,1.000,1.000,-90.00,180.00,-22.50,OPEN,0
654854.209,3,0,0,1.000,1.000,1.000,-90.00,180.00,-22.50,OPEN,0
654854.213,3,0,0,1.000,1.000,1.000,-90.00,180.00,-22.50,OPEN,0
654854.218,0,0,0,1.000,1.000,1.000,-90.00,180.00,-22.50,OPEN,0
654854.222,0,0,0,1.000,1.000,1.000,-90.00,180.00,-22.50,OPEN,0
654854.226,0,0,0,1.000,1.000,1.000,-90.00,180.00,-22.50,OPEN,0
654854.231,0,0,0,1.000,1.000,1.000,-90.00,180.00,-22.50,OPEN,0
654854.235,0,0,0,1.000,1.000,1.000,-90.00,180.00,-22.50,OPEN,0
654854.240,0,0,0,1.000,1.000,1.000,-90.00,180.00,-22.50,OPEN,0
654854.244,0,0,0,1.000,1.000,1.000,-90.00,180.00,-22.50,OPEN,0
654854.248,0,0,0,1.000,1.000,1.000,-90.00,180.00,-22.50,OPEN,0
654854.252,0,0,0,1.000,1.000,1.000,-90.00,180.00,-22.50,OPEN,0
654854.256,0,0,0,1.000,1.000,1.000,-90.00,180.00,-22.50,OPEN,0
654854.259,0,0,0,1.000,1.000,1.000,-90.00,180.00,-22.50,OPEN,0
654854.263,0,0,0,1.000,1.000,1.000,-90.00,180.00,-22.50,OPEN,0
654854.267,0,0,0,1.000,1.000,1.000,-90.00,180.00,-22.50,OPEN,0
654854.271,0,0,0,1.000,1.000,1.000,-90.00,180.00,-22.50,OPEN,0
654854.276,0,0,0,1.000,1.000,1.000,-90.00,180.00,-22.50,OPEN,0
654854.281,0,0,0,1.000,1.000,1.000,-90.00,180.00,-22.50,OPEN,0
654854.285,0,0,0,1.000,1.000,1.000,-90.00,180.00,-22.50,OPEN,0
654854.289,0,0,0,1.000,1.000,1.000,-90.00,180.00,-22.50,OPEN,0
654854.294,0,0,0,1.000,1.000,1.000,-90.00,180.00,-22.50,OPEN,0
654854.298,0,0,0,1.000,1.000,1.000,-90.00,180.00,-22.50,OPEN,0
654854.302,0,0,0,0.999,1.000,1.000,-90.00,180.00,-22.50,OPEN,0
654854.306,0,0,0,1.000,1.000,1.000,-90.00,180.00,-22.50,OPEN,0
654854.310,0,0,0,1.000,1.000,1.000,-90.00,180.00,-22.50,OPEN,0
654854.314,0,0,0,1.000,1.000,1.000,-90.00,180.00,-22.50,OPEN,0
654854.318,0,0,0,1.000,1.000,1.000,-90.00,180.00,-22.50,OPEN,0
654854.322,0,0,0,1.000,1.000,1.000,-90.00,180.00,-22.50,OPEN,0
654854.326,0,0,0,1.000,1.000,1.000,-90.00,180.00,-22.50,OPEN,0
654854.330,0,0,0,1.000,1.000,1.000,-90.00,180.00,-22.50,OPEN,0
654854.335,0,0,0,1.000,1.000,1.000,-90.00,180.00,-22.50,OPEN,0
654854.339,0,0,0,1.000,1.000,1.000,-90.00,180.00,-22.50,OPEN,0
654854.343,0,0,0,1.000,1.000,1.000,-90.00,180.00,-22.50,OPEN,0
654854.347,0,0,0,1.000,1.000,1.000,-90.00,180.00,-22.50,OPEN,0
654854.351,0,0,0,1.000,1.000,1.000,-90.00,180.00,-22.50,OPEN,0
654854.355,0,0,0,1.000,1.000,1.000,-90.00,180.00,-22.50,OPEN,0
654854.359,0,0,0,1.000,1.000,1.000,-90.00,180.00,-22.50,OPEN,0
654854.363,0,0,0,1.000,1.000,1.000,-90.00,180.00,-22.50,OPEN,0
654854.367,0,0,0,1.000,1.000,1.000,-90.00,180.00,-22.50,OPEN,0
654854.371,0,0,0,1.000,1.000,1.000,-90.00,180.00,-22.50,OPEN,0
654854.383,0,0,0,1.000,1.000,1.000,-90.00,180.00,-22.50,OPEN,0
654854.392,0,0,0,1.000,1.000,1.000,-90.00,180.00,-22.50,OPEN,0
654854.401,0,0,0,1.000,1.000,1.000,-90.00,180.00,-22.50,OPEN,0
654854.407,0,0,0,1.000,1.000,1.000,-90.00,180.00,-22.50,OPEN,0
654854.413,0,0,0,1.000,1.000,1.000,-90.00,180.00,-22.50,OPEN,0
654854.419,0,0,0,1.000,1.000,1.000,-90.00,180.00,-22.50,OPEN,0
654854.424,0,0,0,1.000,1.000,1.000,-90.00,180.00,-22.50,OPEN,0
654854.429,0,0,0,1.000,1.000,1.000,-90.00,180.00,-22.50,OPEN,0
654854.434,0,0,0,1.000,1.000,1.000,-90.00,180.00,-22.50,OPEN,0
654854.438,0,0,0,1.000,1.000,1.000,-90.00,180.00,-22.50,OPEN,0
654854.442,0,0,0,1.000,1.000,1.000,-90.00,180.00,-22.50,OPEN,0
654854.446,0,0,0,1.000,1.000,1.000,-90.00,180.00,-22.50,OPEN,0
654854.450,0,0,0,1.000,1.000,1.000,-90.00,180.00,-22.50,OPEN,0
654854.453,0,0,0,1.000,1.000,1.000,-90.00,180.00,-22.50,OPEN,0
654854.457,0,0,0,1.000,1.000,1.000,-90.00,180.00,-22.50,OPEN,0
654854.461,0,0,0,1.000,1.000,1.000,-90.00,180.00,-22.50,OPEN,0
654854.464,0,0,0,1.000,1.000,1.000,-90.00,180.00,-22.50,OPEN,0
654854.468,0,0,0,1.000,1.000,1.000,-90.00,180.00,-22.50,OPEN,0
654854.471,0,0,0,1.000,1.000,1.000,-90.00,180.00,-22.50,OPEN,0
654854.475,0,0,0,1.000,1.000,1.000,-90.00,180.00,-22.50,OPEN,0
654854.479,0,0,0,1.000,1.000,1.000,-90.00,180.00,-22.50,OPEN,0
654854.484,0,0,0,1.000,1.000,1.000,-90.00,180.00,-22.50,OPEN,0
654854.491,0,0,0,1.000,1.000,1.000,-90.00,180.00,-22.50,OPEN,0
654854.496,0,0,0,1.000,1.000,1.000,-90.00,180.00,-22.50,OPEN,0
654854.501,0,0,0,1.000,1.000,1.000,-90.00,180.00,-22.50,OPEN,0
654854.506,0,0,0,1.000,1.000,1.000,-90.00,180.00,-22.50,OPEN,0
654854.510,0,0,0,1.000,1.000,1.000,-90.00,180.00,-22.50,OPEN,0
654854.515,0,0,0,1.000,1.000,1.000,-90.00,180.00,-22.50,OPEN,0
654854.520,0,0,0,1.000,1.000,1.000,-90.00,180.00,-22.50,OPEN,0
654854.524,0,0,0,1.000,1.000,1.000,-90.00,180.00,-22.50,OPEN,0
654854.528,0,0,0,1.000,1.000,1.000,-90.00,180.00,-22.50,OPEN,0
654854.532,0,0,0,1.000,1.000,1.000,-90.00,180.00,-22.50,OPEN,0
654854.536,0,0,0,1.000,1.000,1.000,-90.00,180.00,-22.50,OPEN,0
654854.539,0,0,0,1.000,1.000,1.000,-90.00,180.00,-22.50,OPEN,0
654854.543,0,0,0,1.000,1.000,1.000,-90.00,180.00,-22.50,OPEN,0
654854.547,0,0,0,1.000,1.000,1.000,-90.00,180.00,-22.50,OPEN,0
654854.551,0,0,0,1.000,1.000,1.000,-90.00,180.00,-22.50,OPEN,0
654854.554,0,0,0,1.000,1.000,1.000,-90.00,180.00,-22.50,OPEN,0
654854.559,0,0,0,1.000,1.000,1.000,-90.00,180.00,-22.50,OPEN,0
654854.562,0,0,0,1.000,1.000,1.000,-90.00,180.00,-22.50,OPEN,0
654854.566,0,0,0,1.000,1.000,1.000,-90.00,180.00,-22.50,OPEN,0
654854.571,0,0,0,1.000,1.000,1.000,-90.00,180.00,-22.50,OPEN,0
654854.576,0,0,0,1.000,1.000,1.000,-90.00,180.00,-22.50,OPEN,0
654854.581,0,0,0,1.000,1.000,1.000,-90.00,180.00,-22.50,OPEN,0
654854.585,0,0,0,1.000,1.000,1.000,-90.00,180.00,-22.50,OPEN,0
654854.589,0,0,0,1.000,1.000,1.000,-90.00,180.00,-22.50,OPEN,0
654854.594,0,0,0,1.000,1.000,1.000,-90.00,180.00,-22.50,OPEN,0
654854.597,0,0,0,1.000,1.000,1.000,-90.00,180.00,-22.50,OPEN,0
654854.601,0,0,0,1.000,1.000,1.000,-90.00,180.00,-22.50,OPEN,0
654854.605,0,0,0,1.000,1.000,1.000,-90.00,180.00,-22.50,OPEN,0
654854.609,0,0,0,1.000,1.000,1.000,-90.00,180.00,-22.50,OPEN,0
654854.613,0,0,0,1.000,1.000,1.000,-90.00,180.00,-22.50,OPEN,0
654854.617,0,0,0,1.000,1.000,1.000,-90.00,180.00,-22.50,OPEN,0
654854.621,0,0,0,1.000,1.000,1.000,-90.00,180.00,-22.50,OPEN,0
654854.625,0,0,0,1.000,1.000,1.000,-90.00,180.00,-22.50,OPEN,0
654854.628,0,0,0,1.000,1.000,1.000,-90.00,180.00,-22.50,OPEN,0
654854.632,0,0,0,1.000,1.000,1.000,-90.00,180.00,-22.50,OPEN,0
654854.636,0,0,0,1.000,1.000,1.000,-90.00,180.00,-22.50,OPEN,0
654854.640,0,0,0,1.000,1.000,1.000,-90.00,180.00,-22.50,OPEN,0
654854.644,0,0,0,1.000,1.000,1.000,-90.00,180.00,-22.50,OPEN,0
654854.647,0,0,0,1.000,1.000,1.000,-90.00,180.00,-22.50,OPEN,0
654854.651,0,0,0,1.000,1.000,1.000,-90.00,180.00,-22.50,OPEN,0
654854.655,0,0,0,1.000,1.000,1.000,-90.00,180.00,-22.50,OPEN,0
654854.660,0,0,0,1.000,1.000,1.000,-90.00,180.00,-22.50,OPEN,0
654854.663,0,0,0,1.000,1.000,1.000,-90.00,180.00,-22.50,OPEN,0
