t,hand,elbow,shoulder,p_hand,p_elbow,p_shoulder,J2,J3,J6,grip_state,cmd_sent
669522.832,0,0,0,0.981,1.000,0.999,-90.00,180.00,0.00,OPEN,0
669522.849,0,0,0,0.997,1.000,0.999,-90.00,180.00,0.00,OPEN,0
669522.854,0,0,0,1.000,1.000,0.998,-90.00,180.00,0.00,OPEN,0
669522.859,0,0,0,1.000,1.000,0.999,-90.00,180.00,0.00,OPEN,0
669522.865,0,0,0,1.000,1.000,0.999,-90.00,180.00,0.00,OPEN,0
669522.869,0,0,0,1.000,1.000,0.999,-90.00,180.00,0.00,OPEN,0
669522.874,0,0,0,1.000,1.000,0.999,-90.00,180.00,0.00,OPEN,0
669522.878,0,0,0,1.000,1.000,0.999,-90.00,180.00,0.00,OPEN,0
669522.882,0,0,0,1.000,1.000,0.999,-90.00,180.00,0.00,OPEN,0
669522.888,0,0,0,1.000,1.000,0.999,-90.00,180.00,0.00,OPEN,0
669522.893,0,0,0,1.000,1.000,0.999,-90.00,180.00,0.00,OPEN,0
669522.898,0,0,0,1.000,1.000,0.998,-90.00,180.00,0.00,OPEN,0
669522.904,0,0,0,1.000,1.000,0.998,-90.00,180.00,0.00,OPEN,0
669522.912,0,0,0,1.000,1.000,0.998,-90.00,180.00,0.00,OPEN,0
669522.920,0,0,0,1.000,1.000,0.996,-90.00,180.00,0.00,OPEN,0
669522.928,0,0,0,1.000,1.000,0.995,-90.00,180.00,0.00,OPEN,0
669522.937,0,0,0,1.000,1.000,0.997,-90.00,180.00,0.00,OPEN,0
669522.943,0,0,0,1.000,1.000,0.996,-90.00,180.00,0.00,OPEN,0
669522.949,0,0,0,1.000,1.000,0.997,-90.00,180.00,0.00,OPEN,0
669522.959,0,0,0,1.000,1.000,0.997,-90.00,180.00,0.00,OPEN,0
669522.963,0,0,0,1.000,1.000,0.992,-90.00,180.00,0.00,OPEN,0
669522.968,0,0,0,1.000,1.000,0.988,-90.00,180.00,0.00,OPEN,0
669522.972,0,0,0,1.000,1.000,0.972,-90.00,180.00,0.00,OPEN,0
669522.975,0,0,0,1.000,1.000,0.994,-90.00,180.00,0.00,OPEN,0
669522.979,0,0,0,1.000,1.000,0.996,-90.00,180.00,0.00,OPEN,0
669522.983,0,0,0,1.000,1.000,0.993,-90.00,180.00,0.00,OPEN,0
669522.986,0,0,0,1.000,1.000,0.994,-90.00,180.00,0.00,OPEN,0
669522.990,0,0,0,1.000,1.000,0.993,-90.00,180.00,0.00,OPEN,0
669522.994,0,0,0,1.000,1.000,0.994,-90.00,180.00,0.00,OPEN,0
669522.998,0,0,0,1.000,1.000,0.985,-90.00,180.00,0.00,OPEN,0
669523.002,0,0,0,1.000,1.000,0.889,-90.00,180.00,0.00,OPEN,0
669523.006,0,0,0,1.000,1.000,0.814,-90.00,180.00,0.00,OPEN,0
669523.010,0,0,0,1.000,1.000,0.943,-90.00,180.00,0.00,OPEN,0
669523.016,0,0,0,1.000,1.000,0.984,-90.00,180.00,0.00,OPEN,0
669523.022,0,0,0,1.000,1.000,0.991,-90.00,180.00,0.00,OPEN,0
669523.027,0,0,0,1.000,1.000,0.992,-90.00,180.00,0.00,OPEN,0
669523.031,0,0,0,1.000,1.000,0.995,-90.00,180.00,0.00,OPEN,0
669523.035,0,0,0,1.000,1.000,0.996,-90.00,180.00,0.00,OPEN,0
669523.039,0,0,0,1.000,1.000,0.998,-90.00,180.00,0.00,OPEN,0
669523.043,0,0,0,1.000,1.000,0.998,-90.00,180.00,0.00,OPEN,0
669523.047,0,0,0,1.000,1.000,0.997,-90.00,180.00,0.00,OPEN,0
669523.052,0,0,0,1.000,1.000,0.994,-90.00,180.00,0.00,OPEN,0
669523.057,0,0,0,1.000,1.000,0.994,-90.00,180.00,0.00,OPEN,0
669523.064,0,0,0,1.000,1.000,0.993,-90.00,180.00,0.00,OPEN,0
669523.074,0,0,0,1.000,1.000,0.989,-90.00,180.00,0.00,OPEN,0
669523.080,0,0,0,1.000,1.000,0.981,-90.00,180.00,0.00,OPEN,0
669523.086,0,0,0,1.000,1.000,0.978,-90.00,180.00,0.00,OPEN,0
669523.094,0,0,0,1.000,1.000,0.983,-90.00,180.00,0.00,OPEN,0
669523.101,0,0,0,1.000,1.000,0.993,-90.00,180.00,0.00,OPEN,0
669523.110,0,0,0,1.000,1.000,0.992,-90.00,180.00,0.00,OPEN,0
669523.115,0,0,0,1.000,1.000,0.992,-90.00,180.00,0.00,OPEN,0
669523.120,0,0,0,1.000,1.000,0.989,-90.00,180.00,0.00,OPEN,0
669523.127,0,0,0,1.000,1.000,0.988,-90.00,180.00,0.00,OPEN,0
669523.132,0,0,0,1.000,1.000,0.957,-90.00,180.00,0.00,OPEN,0
669523.136,0,0,0,1.000,1.000,0.920,-90.00,180.00,0.00,OPEN,0
669523.141,0,0,0,1.000,1.000,0.942,-90.00,180.00,0.00,OPEN,0
669523.146,0,0,0,1.000,1.000,0.936,-90.00,180.00,0.00,OPEN,0
669523.150,0,0,0,1.000,1.000,0.935,-90.00,180.00,0.00,OPEN,0
669523.155,0,0,0,1.000,1.000,0.911,-90.00,180.00,0.00,OPEN,0
669523.162,0,0,0,1.000,1.000,0.908,-90.00,180.00,0.00,OPEN,0
669523.168,0,0,0,1.000,1.000,0.968,-90.00,180.00,0.00,OPEN,0
669523.176,0,0,0,1.000,1.000,0.969,-90.00,180.00,0.00,OPEN,0
669523.181,0,0,0,1.000,1.000,0.981,-90.00,180.00,0.00,OPEN,0
669523.186,0,0,0,1.000,1.000,0.995,-90.00,180.00,0.00,OPEN,0
669523.192,0,0,0,1.000,1.000,0.996,-90.00,180.00,0.00,OPEN,0
669523.197,0,0,0,1.000,1.000,0.996,-90.00,180.00,0.00,OPEN,0
669523.203,0,0,0,1.000,1.000,0.994,-90.00,180.00,0.00,OPEN,0
669523.207,0,0,0,1.000,1.000,0.990,-90.00,180.00,0.00,OPEN,0
669523.212,0,0,0,1.000,1.000,0.986,-90.00,180.00,0.00,OPEN,0
669523.217,0,0,0,1.000,1.000,0.987,-90.00,180.00,0.00,OPEN,0
669523.222,0,0,0,1.000,1.000,0.982,-90.00,180.00,0.00,OPEN,0
669523.226,0,0,0,1.000,1.000,0.978,-90.00,180.00,0.00,OPEN,0
669523.231,0,0,0,1.000,1.000,0.983,-90.00,180.00,0.00,OPEN,0
669523.235,0,0,0,1.000,1.000,0.988,-90.00,180.00,0.00,OPEN,0
669523.240,0,0,0,1.000,1.000,0.994,-90.00,180.00,0.00,OPEN,0
669523.244,0,0,0,1.000,1.000,0.994,-90.00,180.00,0.00,OPEN,0
669523.248,0,0,0,1.000,1.000,0.990,-90.00,180.00,0.00,OPEN,0
669523.252,0,0,0,1.000,1.000,0.991,-90.00,180.00,0.00,OPEN,0
669523.256,0,0,0,1.000,1.000,0.989,-90.00,180.00,0.00,OPEN,0
669523.260,0,0,0,1.000,1.000,0.986,-90.00,180.00,0.00,OPEN,0
669523.264,0,0,0,1.000,1.000,0.985,-90.00,180.00,0.00,OPEN,0
669523.268,0,0,0,1.000,1.000,0.981,-90.00,180.00,0.00,OPEN,0
669523.272,0,0,0,1.000,1.000,0.979,-90.00,180.00,0.00,OPEN,0
669523.275,0,0,0,1.000,1.000,0.988,-90.00,180.00,0.00,OPEN,0
669523.279,0,0,0,1.000,1.000,0.987,-90.00,180.00,0.00,OPEN,0
669523.284,0,0,0,1.000,1.000,0.987,-90.00,180.00,0.00,OPEN,0
669523.288,0,0,0,1.000,1.000,0.987,-90.00,180.00,0.00,OPEN,0
669523.293,0,0,0,1.000,1.000,0.990,-90.00,180.00,0.00,OPEN,0
669523.297,0,0,0,1.000,1.000,0.994,-90.00,180.00,0.00,OPEN,0
669523.301,0,0,0,1.000,1.000,0.989,-90.00,180.00,0.00,OPEN,0
669523.306,0,0,0,1.000,1.000,0.987,-90.00,180.00,0.00,OPEN,0
669523.310,0,0,0,1.000,1.000,0.987,-90.00,180.00,0.00,OPEN,0
669523.314,0,0,0,1.000,1.000,0.990,-90.00,180.00,0.00,OPEN,0
669523.318,0,0,0,1.000,1.000,0.981,-90.00,180.00,0.00,OPEN,0
669523.322,0,0,0,1.000,1.000,0.979,-90.00,180.00,0.00,OPEN,0
669523.326,0,0,0,1.000,1.000,0.985,-90.00,180.00,0.00,OPEN,0
669523.330,0,0,0,1.000,1.000,1.000,-90.00,180.00,0.00,OPEN,0
669523.333,0,0,0,1.000,1.000,1.000,-90.00,180.00,0.00,OPEN,0
669523.338,0,0,0,1.000,1.000,1.000,-90.00,180.00,0.00,OPEN,0
669523.342,0,0,0,1.000,1.000,1.000,-90.00,180.00,0.00,OPEN,0
669523.345,0,0,0,1.000,1.000,1.000,-90.00,180.00,0.00,OPEN,0
669523.350,0,0,0,1.000,1.000,1.000,-90.00,180.00,0.00,OPEN,0
669523.354,0,0,0,1.000,1.000,1.000,-90.00,180.00,0.00,OPEN,0
669523.359,0,0,0,1.000,1.000,1.000,-90.00,180.00,0.00,OPEN,0
669523.363,0,0,0,1.000,1.000,1.000,-90.00,180.00,0.00,OPEN,0
669523.367,0,0,0,1.000,1.000,1.000,-90.00,180.00,0.00,OPEN,0
669523.372,0,0,0,1.000,1.000,1.000,-90.00,180.00,0.00,OPEN,0
669523.377,0,0,0,1.000,1.000,1.000,-90.00,180.00,0.00,OPEN,0
669523.382,0,0,0,1.000,1.000,1.000,-90.00,180.00,0.00,OPEN,0
669523.387,0,0,0,1.000,1.000,1.000,-90.00,180.00,0.00,OPEN,0
669523.392,0,0,0,1.000,1.000,1.000,-90.00,180.00,0.00,OPEN,0
669523.397,0,0,0,1.000,1.000,1.000,-90.00,180.00,0.00,OPEN,0
669523.402,0,0,0,1.000,1.000,1.000,-90.00,180.00,0.00,OPEN,0
669523.406,0,0,0,1.000,1.000,1.000,-90.00,180.00,0.00,OPEN,0
669523.410,0,0,0,1.000,1.000,0.924,-90.00,180.00,0.00,OPEN,0
669523.414,0,0,0,1.000,1.000,0.700,-90.00,180.00,0.00,OPEN,0
669523.417,0,0,0,1.000,1.000,0.790,-90.00,180.00,0.00,OPEN,0
669523.421,0,0,0,1.000,1.000,1.000,-90.00,180.00,0.00,OPEN,0
669523.425,0,0,0,1.000,1.000,1.000,-90.00,180.00,0.00,OPEN,0
669523.428,0,0,0,1.000,1.000,1.000,-90.00,180.00,0.00,OPEN,0
669523.432,0,0,0,0.773,1.000,1.000,-90.00,180.00,0.00,OPEN,0
669523.436,1,0,0,1.000,1.000,1.000,-90.00,180.00,4.50,OPEN,1
669523.441,1,0,0,1.000,1.000,1.000,-90.00,180.00,4.50,OPEN,0
669523.445,1,0,0,1.000,1.000,1.000,-90.00,180.00,4.50,OPEN,0
669523.448,1,0,0,1.000,1.000,1.000,-90.00,180.00,4.50,OPEN,0
669523.452,1,0,0,1.000,1.000,1.000,-90.00,180.00,4.50,OPEN,0
669523.456,1,0,0,1.000,1.000,1.000,-90.00,180.00,4.50,OPEN,0
669523.460,1,0,0,1.000,0.522,0.982,-90.00,180.00,4.50,OPEN,0
669523.464,0,0,0,1.000,0.998,0.732,-90.00,180.00,4.50,OPEN,0
669523.468,0,0,0,1.000,1.000,0.598,-90.00,180.00,4.50,OPEN,0
669523.471,0,0,0,1.000,1.000,0.546,-90.00,180.00,4.50,OPEN,0
669523.475,0,0,0,1.000,1.000,0.600,-90.00,180.00,4.50,OPEN,0
669523.481,0,0,0,1.000,1.000,0.996,-90.00,180.00,4.50,OPEN,0
669523.486,0,0,0,1.000,1.000,0.976,-90.00,180.00,4.50,OPEN,0
669523.491,0,0,0,1.000,1.000,0.959,-90.00,180.00,4.50,OPEN,0
669523.496,0,0,0,1.000,1.000,0.984,-90.00,180.00,4.50,OPEN,0
669523.501,0,0,0,1.000,0.992,0.988,-90.00,180.00,4.50,OPEN,0
669523.506,0,0,0,1.000,0.973,0.978,-90.00,180.00,4.50,OPEN,0
669523.510,0,0,0,1.000,0.743,0.999,-90.00,180.00,4.50,OPEN,0
669523.515,0,0,0,1.000,1.000,1.000,-90.00,180.00,4.50,OPEN,0
669523.520,0,0,0,1.000,1.000,0.995,-90.00,180.00,4.50,OPEN,0
669523.524,0,0,0,1.000,0.810,0.803,-90.00,180.00,4.50,OPEN,0
669523.529,0,0,0,1.000,0.977,0.574,-90.00,180.00,4.50,OPEN,0
669523.533,0,0,0,1.000,0.949,0.637,-90.00,180.00,4.50,OPEN,0
669523.537,0,0,0,1.000,0.778,0.794,-90.00,180.00,4.50,OPEN,0
669523.541,0,0,0,1.000,0.995,0.992,-90.00,180.00,4.50,OPEN,0
669523.545,0,0,0,1.000,1.000,1.000,-90.00,180.00,4.50,OPEN,0
669523.549,0,0,0,1.000,1.000,1.000,-90.00,180.00,4.50,OPEN,0
669523.552,0,0,0,1.000,1.000,1.000,-90.00,180.00,4.50,OPEN,0
669523.556,0,0,0,1.000,1.000,1.000,-90.00,180.00,4.50,OPEN,0
669523.560,0,0,0,1.000,1.000,1.000,-90.00,180.00,4.50,OPEN,0
669523.564,0,0,0,1.000,1.000,1.000,-90.00,180.00,4.50,OPEN,0
669523.568,0,0,0,1.000,1.000,1.000,-90.00,180.00,4.50,OPEN,0
669523.572,0,0,0,1.000,1.000,0.956,-90.00,180.00,4.50,OPEN,0
669523.575,0,0,0,1.000,1.000,0.562,-90.00,180.00,4.50,OPEN,0
669523.579,0,0,0,1.000,1.000,1.000,-90.00,180.00,4.50,OPEN,0
669523.584,0,0,0,1.000,1.000,1.000,-90.00,180.00,4.50,OPEN,0
669523.589,0,0,0,1.000,1.000,1.000,-90.00,180.00,4.50,OPEN,0
669523.594,0,0,0,1.000,1.000,1.000,-90.00,180.00,4.50,OPEN,0
669523.598,0,0,0,1.000,1.000,1.000,-90.00,180.00,4.50,OPEN,0
669523.602,0,0,0,1.000,1.000,1.000,-90.00,180.00,4.50,OPEN,0
669523.607,0,0,0,1.000,1.000,1.000,-90.00,180.00,4.50,OPEN,0
669523.611,0,0,0,1.000,1.000,1.000,-90.00,180.00,4.50,OPEN,0
669523.614,0,0,0,1.000,1.000,1.000,-90.00,180.00,4.50,OPEN,0
669523.618,0,0,0,1.000,1.000,1.000,-90.00,180.00,4.50,OPEN,0
669523.622,0,0,0,1.000,1.000,1.000,-90.00,180.00,4.50,OPEN,0
669523.626,0,0,0,1.000,1.000,1.000,-90.00,180.00,4.50,OPEN,0
669523.630,0,0,0,1.000,1.000,1.000,-90.00,180.00,4.50,OPEN,0
669523.634,0,0,0,1.000,1.000,1.000,-90.00,180.00,4.50,OPEN,0
669523.638,0,0,0,1.000,1.000,1.000,-90.00,180.00,4.50,OPEN,0
669523.642,0,0,0,1.000,1.000,1.000,-90.00,180.00,4.50,OPEN,0
669523.645,0,0,0,1.000,1.000,1.000,-90.00,180.00,4.50,OPEN,0
669523.649,0,0,0,1.000,0.999,1.000,-90.00,180.00,4.50,OPEN,0
669523.653,0,0,0,1.000,0.847,0.986,-90.00,180.00,4.50,OPEN,0
669523.656,0,0,0,1.000,1.000,0.759,-90.00,180.00,4.50,OPEN,0
669523.660,0,0,0,1.000,1.000,0.965,-90.00,180.00,4.50,OPEN,0
669523.664,0,0,0,1.000,1.000,0.994,-90.00,180.00,4.50,OPEN,0
669523.667,0,0,0,1.000,1.000,0.994,-90.00,180.00,4.50,OPEN,0
669523.671,0,0,0,1.000,1.000,0.993,-90.00,180.00,4.50,OPEN,0
669523.675,0,0,0,1.000,1.000,0.991,-90.00,180.00,4.50,OPEN,0
669523.679,0,0,0,1.000,1.000,0.987,-90.00,180.00,4.50,OPEN,0
669523.683,0,0,0,1.000,1.000,0.991,-90.00,180.00,4.50,OPEN,0
669523.686,0,0,0,1.000,1.000,0.995,-90.00,180.00,4.50,OPEN,0
669523.691,0,0,0,1.000,1.000,0.993,-90.00,180.00,4.50,OPEN,0
669523.695,0,0,0,1.000,1.000,0.985,-90.00,180.00,4.50,OPEN,0
669523.698,0,0,0,1.000,1.000,0.981,-90.00,180.00,4.50,OPEN,0
669523.702,0,0,0,1.000,1.000,0.991,-90.00,180.00,4.50,OPEN,0
669523.708,0,0,0,1.000,1.000,0.989,-90.00,180.00,4.50,OPEN,0
669523.713,0,0,0,1.000,1.000,0.980,-90.00,180.00,4.50,OPEN,0
669523.717,0,0,0,1.000,1.000,0.959,-90.00,180.00,4.50,OPEN,0
669523.721,0,0,0,1.000,1.000,0.587,-90.00,180.00,4.50,OPEN,0
669523.725,0,0,0,1.000,1.000,0.505,-90.00,180.00,4.50,OPEN,0
669523.730,0,0,0,1.000,1.000,0.514,-90.00,180.00,4.50,OPEN,0
669523.734,0,0,0,1.000,1.000,0.504,-90.00,180.00,4.50,OPEN,0
669523.738,0,0,0,1.000,1.000,0.527,-90.00,180.00,4.50,OPEN,0
669523.743,0,0,0,1.000,1.000,0.761,-90.00,180.00,4.50,OPEN,0
669523.747,0,0,0,1.000,1.000,0.892,-90.00,180.00,4.50,OPEN,0
669523.751,0,0,0,1.000,1.000,0.929,-90.00,180.00,4.50,OPEN,0
669523.755,0,0,0,1.000,1.000,0.940,-90.00,180.00,4.50,OPEN,0
669523.759,0,0,0,1.000,1.000,0.913,-90.00,180.00,4.50,OPEN,0
669523.764,0,0,0,1.000,1.000,0.912,-90.00,180.00,4.50,OPEN,0
669523.767,0,0,0,1.000,1.000,0.848,-90.00,180.00,4.50,OPEN,0
669523.771,0,0,0,1.000,1.000,0.874,-90.00,180.00,4.50,OPEN,0
669523.776,0,0,0,1.000,1.000,0.876,-90.00,180.00,4.50,OPEN,0
669523.780,0,0,0,1.000,1.000,0.909,-90.00,180.00,4.50,OPEN,0
669523.784,0,0,0,1.000,1.000,0.925,-90.00,180.00,4.50,OPEN,0
669523.788,0,0,0,1.000,1.000,0.970,-90.00,180.00,4.50,OPEN,0
669523.793,0,0,0,1.000,1.000,0.980,-90.00,180.00,4.50,OPEN,0
669523.797,0,0,0,1.000,1.000,0.982,-90.00,180.00,4.50,OPEN,0
669523.800,0,0,0,1.000,1.000,0.990,-90.00,180.00,4.50,OPEN,0
669523.804,0,0,0,1.000,1.000,0.993,-90.00,180.00,4.50,OPEN,0
669523.808,0,0,0,1.000,1.000,0.991,-90.00,180.00,4.50,OPEN,0
669523.812,0,0,0,1.000,1.000,0.993,-90.00,180.00,4.50,OPEN,0
669523.816,0,0,0,1.000,1.000,0.995,-90.00,180.00,4.50,OPEN,0
669523.820,0,0,0,1.000,1.000,0.995,-90.00,180.00,4.50,OPEN,0
669523.824,0,0,0,1.000,1.000,0.996,-90.00,180.00,4.50,OPEN,0
669523.827,0,0,0,1.000,1.000,0.997,-90.00,180.00,4.50,OPEN,0
669523.833,0,0,0,1.000,1.000,0.988,-90.00,180.00,4.50,OPEN,0
669523.837,0,0,0,1.000,1.000,0.949,-90.00,180.00,4.50,OPEN,0
669523.841,0,0,0,1.000,1.000,0.769,-90.00,180.00,4.50,OPEN,0
669523.846,0,0,0,1.000,1.000,0.682,-90.00,180.00,4.50,OPEN,0
669523.850,0,0,0,1.000,1.000,0.598,-90.00,180.00,4.50,OPEN,0
669523.854,0,0,0,1.000,1.000,0.619,-90.00,180.00,4.50,OPEN,0
669523.859,0,0,0,1.000,1.000,0.518,-90.00,180.00,4.50,OPEN,0
669523.864,0,0,0,1.000,1.000,0.527,-90.00,180.00,4.50,OPEN,0
669523.869,0,0,0,1.000,1.000,0.560,-90.00,180.00,4.50,OPEN,0
669523.874,0,0,0,1.000,1.000,0.534,-90.00,180.00,4.50,OPEN,0
669523.879,0,0,0,1.000,1.000,0.687,-90.00,180.00,4.50,OPEN,0
669523.883,0,0,0,1.000,1.000,0.702,-90.00,180.00,4.50,OPEN,0
669523.887,0,0,0,1.000,1.000,0.818,-90.00,180.00,4.50,OPEN,0
669523.891,0,0,0,1.000,1.000,0.739,-90.00,180.00,4.50,OPEN,0
669523.897,0,0,0,1.000,1.000,0.771,-90.00,180.00,4.50,OPEN,0
669523.901,0,0,0,1.000,1.000,0.750,-90.00,180.00,4.50,OPEN,0
669523.905,0,0,0,1.000,1.000,0.721,-90.00,180.00,4.50,OPEN,0
669523.909,0,0,0,1.000,1.000,0.617,-90.00,180.00,4.50,OPEN,0
669523.915,0,0,0,1.000,1.000,0.580,-90.00,180.00,4.50,OPEN,0
669523.919,0,0,0,1.000,1.000,0.666,-90.00,180.00,4.50,OPEN,0
669523.923,0,0,0,1.000,1.000,0.615,-90.00,180.00,4.50,OPEN,0
669523.928,0,0,0,1.000,1.000,0.527,-90.00,180.00,4.50,OPEN,0
669523.933,0,0,0,1.000,1.000,0.607,-90.00,180.00,4.50,OPEN,0
669523.936,0,0,0,1.000,1.000,0.608,-90.00,180.00,4.50,OPEN,0
669523.940,0,0,0,1.000,1.000,0.708,-90.00,180.00,4.50,OPEN,0
669523.944,0,0,0,1.000,1.000,0.855,-90.00,180.00,4.50,OPEN,0
669523.947,0,0,0,1.000,1.000,0.816,-90.00,180.00,4.50,OPEN,0
669523.951,0,0,0,1.000,1.000,0.858,-90.00,180.00,4.50,OPEN,0
669523.954,0,0,0,1.000,1.000,0.850,-90.00,180.00,4.50,OPEN,0
669523.958,0,0,0,1.000,1.000,0.653,-90.00,180.00,4.50,OPEN,0
669523.962,0,0,0,1.000,1.000,0.612,-90.00,180.00,4.50,OPEN,0
669523.966,0,0,0,1.000,1.000,0.638,-90.00,180.00,4.50,OPEN,0
669523.971,0,0,0,1.000,1.000,0.707,-90.00,180.00,4.50,OPEN,0
669523.975,0,0,0,1.000,1.000,0.766,-90.00,180.00,4.50,OPEN,0
669523.979,0,0,0,1.000,1.000,0.682,-90.00,180.00,4.50,OPEN,0
669523.983,0,0,0,1.000,1.000,0.505,-90.00,180.00,4.50,OPEN,0
669523.987,0,0,0,1.000,1.000,0.640,-90.00,180.00,4.50,OPEN,0
669523.991,0,0,0,1.000,1.000,0.733,-90.00,180.00,4.50,OPEN,0
669523.995,0,0,0,1.000,1.000,1.000,-90.00,180.00,4.50,OPEN,0
669523.998,0,0,0,1.000,1.000,1.000,-90.00,180.00,4.50,OPEN,0
669524.002,0,0,0,1.000,1.000,1.000,-90.00,180.00,4.50,OPEN,0
669524.006,0,0,0,1.000,1.000,1.000,-90.00,180.00,4.50,OPEN,0
669524.009,0,0,0,1.000,1.000,1.000,-90.00,180.00,4.50,OPEN,0
669524.013,0,0,0,1.000,1.000,1.000,-90.00,180.00,4.50,OPEN,0
669524.017,0,0,0,1.000,1.000,1.000,-90.00,180.00,4.50,OPEN,0
669524.020,0,0,0,1.000,1.000,1.000,-90.00,180.00,4.50,OPEN,0
669524.024,0,0,0,1.000,1.000,1.000,-90.00,180.00,4.50,OPEN,0
669524.027,0,0,0,1.000,1.000,1.000,-90.00,180.00,4.50,OPEN,0
669524.031,0,0,0,0.984,1.000,1.000,-90.00,180.00,4.50,OPEN,0
669524.034,0,0,0,0.985,1.000,1.000,-90.00,180.00,4.50,OPEN,0
669524.038,0,0,0,0.968,1.000,1.000,-90.00,180.00,4.50,OPEN,0
669524.042,0,0,0,0.966,1.000,1.000,-90.00,180.00,4.50,OPEN,0
669524.046,0,0,0,0.962,1.000,1.000,-90.00,180.00,4.50,OPEN,0
669524.050,0,0,0,0.957,1.000,1.000,-90.00,180.00,4.50,OPEN,0
669524.054,0,0,0,0.937,1.000,1.000,-90.00,180.00,4.50,OPEN,0
669524.058,0,0,0,0.984,1.000,1.000,-90.00,180.00,4.50,OPEN,0
669524.062,0,0,0,0.999,1.000,1.000,-90.00,180.00,4.50,OPEN,0
669524.065,0,0,0,1.000,1.000,1.000,-90.00,180.00,4.50,OPEN,0
669524.069,0,0,0,1.000,0.985,0.999,-90.00,180.00,4.50,OPEN,0
669524.073,0,0,0,1.000,1.000,1.000,-90.00,180.00,4.50,OPEN,0
669524.077,0,0,0,1.000,1.000,1.000,-90.00,180.00,4.50,OPEN,0
669524.080,0,0,0,1.000,0.997,1.000,-90.00,180.00,4.50,OPEN,0
669524.085,2,0,0,1.000,1.000,1.000,-90.00,180.00,0.00,OPEN,1
669524.089,2,0,0,1.000,1.000,1.000,-90.00,180.00,0.00,OPEN,0
669524.093,2,0,0,1.000,1.000,1.000,-90.00,180.00,0.00,OPEN,0
669524.096,2,0,0,1.000,1.000,1.000,-90.00,180.00,0.00,OPEN,0
669524.100,2,0,0,1.000,0.996,0.988,-90.00,180.00,0.00,OPEN,0
669524.103,2,0,0,1.000,0.999,0.980,-90.00,180.00,0.00,OPEN,0
669524.107,2,0,0,1.000,0.999,0.977,-90.00,180.00,0.00,OPEN,0
669524.111,2,0,0,1.000,0.998,0.962,-90.00,180.00,0.00,OPEN,0
669524.115,2,0,0,1.000,0.958,0.800,-90.00,180.00,0.00,OPEN,0
669524.118,2,0,0,1.000,1.000,0.998,-90.00,180.00,0.00,OPEN,0
669524.122,2,0,0,1.000,1.000,1.000,-90.00,180.00,0.00,OPEN,0
669524.125,2,0,0,1.000,1.000,1.000,-90.00,180.00,0.00,OPEN,0
669524.129,2,0,0,1.000,1.000,1.000,-90.00,180.00,0.00,OPEN,0
669524.132,2,0,0,1.000,1.000,1.000,-90.00,180.00,0.00,OPEN,0
669524.136,2,0,0,1.000,1.000,1.000,-90.00,180.00,0.00,OPEN,0
669524.140,2,0,0,1.000,1.000,1.000,-90.00,180.00,0.00,OPEN,0
669524.144,2,0,0,1.000,1.000,1.000,-90.00,180.00,0.00,OPEN,0
669524.149,2,0,0,1.000,1.000,1.000,-90.00,180.00,0.00,OPEN,0
669524.153,2,0,0,1.000,1.000,1.000,-90.00,180.00,0.00,OPEN,0
669524.157,2,0,0,1.000,1.000,1.000,-90.00,180.00,0.00,OPEN,0
669524.161,2,0,0,1.000,1.000,1.000,-90.00,180.00,0.00,OPEN,0
669524.165,2,0,0,1.000,1.000,1.000,-90.00,180.00,0.00,OPEN,0
669524.169,2,0,0,1.000,1.000,1.000,-90.00,180.00,0.00,OPEN,0
669524.173,2,0,0,1.000,1.000,1.000,-90.00,180.00,0.00,OPEN,0
669524.177,2,0,0,1.000,1.000,1.000,-90.00,180.00,0.00,OPEN,0
669524.180,2,0,0,1.000,1.000,1.000,-90.00,180.00,0.00,OPEN,0
669524.184,2,0,0,1.000,1.000,1.000,-90.00,180.00,0.00,OPEN,0
669524.188,2,0,0,1.000,1.000,1.000,-90.00,180.00,-4.50,OPEN,1
669524.192,2,0,0,1.000,1.000,1.000,-90.00,180.00,-4.50,OPEN,0
669524.196,2,0,0,1.000,1.000,1.000,-90.00,180.00,-4.50,OPEN,0
669524.200,2,0,0,1.000,1.000,1.000,-90.00,180.00,-4.50,OPEN,0
669524.205,2,0,0,1.000,1.000,1.000,-90.00,180.00,-4.50,OPEN,0
669524.209,2,0,0,1.000,1.000,1.000,-90.00,180.00,-4.50,OPEN,0
669524.213,2,0,0,1.000,1.000,1.000,-90.00,180.00,-4.50,OPEN,0
669524.216,2,0,0,1.000,1.000,1.000,-90.00,180.00,-4.50,OPEN,0
669524.220,2,0,0,1.000,1.000,1.000,-90.00,180.00,-4.50,OPEN,0
669524.223,2,0,0,1.000,1.000,1.000,-90.00,180.00,-4.50,OPEN,0
669524.226,2,0,0,1.000,1.000,1.000,-90.00,180.00,-4.50,OPEN,0
669524.230,2,0,0,1.000,1.000,1.000,-90.00,180.00,-4.50,OPEN,0
669524.233,2,0,0,1.000,1.000,1.000,-90.00,180.00,-4.50,OPEN,0
669524.236,2,0,0,1.000,1.000,1.000,-90.00,180.00,-4.50,OPEN,0
669524.240,2,0,0,1.000,1.000,1.000,-90.00,180.00,-4.50,OPEN,0
669524.244,2,0,0,1.000,1.000,1.000,-90.00,180.00,-4.50,OPEN,0
669524.248,2,0,0,1.000,1.000,1.000,-90.00,180.00,-4.50,OPEN,0
669524.252,2,0,0,1.000,1.000,1.000,-90.00,180.00,-4.50,OPEN,0
669524.256,2,0,0,1.000,1.000,1.000,-90.00,180.00,-4.50,OPEN,0
669524.261,2,0,0,1.000,1.000,1.000,-90.00,180.00,-4.50,OPEN,0
669524.265,2,0,0,1.000,1.000,1.000,-90.00,180.00,-4.50,OPEN,0
669524.268,2,0,0,1.000,1.000,1.000,-90.00,180.00,-4.50,OPEN,0
669524.272,2,0,0,1.000,1.000,1.000,-90.00,180.00,-4.50,OPEN,0
669524.276,2,0,0,1.000,1.000,1.000,-90.00,180.00,-4.50,OPEN,0
669524.279,2,0,0,1.000,1.000,1.000,-90.00,180.00,-4.50,OPEN,0
669524.283,2,0,0,1.000,1.000,1.000,-90.00,180.00,-4.50,OPEN,0
669524.286,2,0,0,1.000,1.000,1.000,-90.00,180.00,-4.50,OPEN,0
669524.290,2,0,0,1.000,1.000,1.000,-90.00,180.00,-9.00,OPEN,1
669524.293,2,0,0,1.000,1.000,1.000,-90.00,180.00,-9.00,OPEN,0
669524.297,2,0,0,1.000,1.000,1.000,-90.00,180.00,-9.00,OPEN,0
669524.300,2,0,0,1.000,1.000,1.000,-90.00,180.00,-9.00,OPEN,0
669524.304,2,0,0,1.000,1.000,1.000,-90.00,180.00,-9.00,OPEN,0
669524.308,2,0,0,1.000,1.000,1.000,-90.00,180.00,-9.00,OPEN,0
669524.311,2,0,0,1.000,1.000,1.000,-90.00,180.00,-9.00,OPEN,0
669524.315,2,0,0,1.000,1.000,1.000,-90.00,180.00,-9.00,OPEN,0
669524.318,2,0,0,1.000,1.000,1.000,-90.00,180.00,-9.00,OPEN,0
669524.322,2,0,0,1.000,1.000,1.000,-90.00,180.00,-9.00,OPEN,0
669524.325,2,0,0,1.000,1.000,1.000,-90.00,180.00,-9.00,OPEN,0
669524.329,2,0,0,1.000,1.000,1.000,-90.00,180.00,-9.00,OPEN,0
669524.332,2,0,0,1.000,1.000,1.000,-90.00,180.00,-9.00,OPEN,0
669524.337,2,0,0,1.000,1.000,1.000,-90.00,180.00,-9.00,OPEN,0
669524.341,2,0,0,1.000,1.000,1.000,-90.00,180.00,-9.00,OPEN,0
669524.344,2,0,0,1.000,1.000,1.000,-90.00,180.00,-9.00,OPEN,0
669524.348,2,0,0,1.000,1.000,1.000,-90.00,180.00,-9.00,OPEN,0
669524.351,2,0,0,1.000,1.000,1.000,-90.00,180.00,-9.00,OPEN,0
669524.355,2,0,0,1.000,1.000,1.000,-90.00,180.00,-9.00,OPEN,0
669524.359,2,0,0,1.000,1.000,1.000,-90.00,180.00,-9.00,OPEN,0
669524.362,2,0,0,1.000,1.000,1.000,-90.00,180.00,-9.00,OPEN,0
669524.366,2,0,0,1.000,1.000,1.000,-90.00,180.00,-9.00,OPEN,0
669524.370,2,0,0,1.000,1.000,1.000,-90.00,180.00,-9.00,OPEN,0
669524.374,2,0,0,1.000,1.000,1.000,-90.00,180.00,-9.00,OPEN,0
669524.378,2,0,0,1.000,1.000,1.000,-90.00,180.00,-9.00,OPEN,0
669524.382,2,0,0,1.000,1.000,1.000,-90.00,180.00,-9.00,OPEN,0
669524.386,2,0,0,1.000,1.000,1.000,-90.00,180.00,-9.00,OPEN,0
669524.390,2,0,0,1.000,1.000,1.000,-90.00,180.00,-13.50,OPEN,1
669524.394,2,0,0,1.000,1.000,1.000,-90.00,180.00,-13.50,OPEN,0
669524.398,2,0,0,1.000,1.000,1.000,-90.00,180.00,-13.50,OPEN,0
669524.401,2,0,0,1.000,1.000,1.000,-90.00,180.00,-13.50,OPEN,0
669524.405,2,0,0,1.000,1.000,1.000,-90.00,180.00,-13.50,OPEN,0
669524.408,2,0,0,1.000,1.000,1.000,-90.00,180.00,-13.50,OPEN,0
669524.412,2,0,0,1.000,1.000,1.000,-90.00,180.00,-13.50,OPEN,0
669524.418,2,0,0,1.000,1.000,1.000,-90.00,180.00,-13.50,OPEN,0
669524.422,2,0,0,1.000,1.000,1.000,-90.00,180.00,-13.50,OPEN,0
669524.425,2,0,0,1.000,1.000,1.000,-90.00,180.00,-13.50,OPEN,0
669524.429,2,0,0,1.000,1.000,1.000,-90.00,180.00,-13.50,OPEN,0
669524.433,2,0,0,1.000,1.000,1.000,-90.00,180.00,-13.50,OPEN,0
669524.437,2,0,0,1.000,1.000,1.000,-90.00,180.00,-13.50,OPEN,0
669524.441,2,0,0,1.000,1.000,1.000,-90.00,180.00,-13.50,OPEN,0
669524.444,2,0,0,1.000,1.000,1.000,-90.00,180.00,-13.50,OPEN,0
669524.447,2,0,0,1.000,1.000,1.000,-90.00,180.00,-13.50,OPEN,0
669524.451,2,0,0,1.000,1.000,1.000,-90.00,180.00,-13.50,OPEN,0
669524.455,2,0,0,1.000,1.000,1.000,-90.00,180.00,-13.50,OPEN,0
669524.458,2,0,0,1.000,1.000,1.000,-90.00,180.00,-13.50,OPEN,0
669524.463,2,0,0,1.000,1.000,1.000,-90.00,180.00,-13.50,OPEN,0
669524.467,2,0,0,1.000,1.000,1.000,-90.00,180.00,-13.50,OPEN,0
669524.470,2,0,0,1.000,1.000,1.000,-90.00,180.00,-13.50,OPEN,0
669524.474,2,0,0,1.000,1.000,1.000,-90.00,180.00,-13.50,OPEN,0
669524.478,2,0,0,1.000,1.000,1.000,-90.00,180.00,-13.50,OPEN,0
669524.481,2,0,0,1.000,1.000,1.000,-90.00,180.00,-13.50,OPEN,0
669524.485,2,0,0,1.000,1.000,1.000,-90.00,180.00,-13.50,OPEN,0
669524.489,2,0,0,1.000,1.000,1.000,-90.00,180.00,-13.50,OPEN,0
669524.492,2,0,0,1.000,1.000,1.000,-90.00,180.00,-18.00,OPEN,1
669524.496,2,0,0,1.000,1.000,1.000,-90.00,180.00,-18.00,OPEN,0
669524.500,2,0,0,1.000,1.000,1.000,-90.00,180.00,-18.00,OPEN,0
669524.504,2,0,0,0.999,1.000,1.000,-90.00,180.00,-18.00,OPEN,0
669524.508,2,0,0,0.998,1.000,1.000,-90.00,180.00,-18.00,OPEN,0
669524.512,2,0,0,0.994,1.000,1.000,-90.00,180.00,-18.00,OPEN,0
669524.515,2,0,0,0.963,1.000,1.000,-90.00,180.00,-18.00,OPEN,0
669524.518,2,0,0,0.904,1.000,1.000,-90.00,180.00,-18.00,OPEN,0
669524.522,2,0,0,0.723,1.000,1.000,-90.00,180.00,-18.00,OPEN,0
669524.526,2,0,0,0.684,1.000,1.000,-90.00,180.00,-18.00,OPEN,0
669524.529,2,0,0,0.927,1.000,1.000,-90.00,180.00,-18.00,OPEN,0
669524.533,2,0,0,0.966,1.000,1.000,-90.00,180.00,-18.00,OPEN,0
669524.536,2,0,0,0.999,1.000,1.000,-90.00,180.00,-18.00,OPEN,0
669524.540,2,0,0,1.000,1.000,1.000,-90.00,180.00,-18.00,OPEN,0
669524.544,2,0,0,1.000,1.000,1.000,-90.00,180.00,-18.00,OPEN,0
669524.548,2,0,0,1.000,1.000,1.000,-90.00,180.00,-18.00,OPEN,0
669524.551,2,0,0,1.000,1.000,1.000,-90.00,180.00,-18.00,OPEN,0
669524.556,0,0,0,1.000,1.000,1.000,-90.00,180.00,-18.00,OPEN,0
669524.560,0,0,0,1.000,1.000,1.000,-90.00,180.00,-18.00,OPEN,0
669524.564,0,0,0,1.000,1.000,1.000,-90.00,180.00,-18.00,OPEN,0
669524.569,0,0,0,1.000,1.000,1.000,-90.00,180.00,-18.00,OPEN,0
669524.573,0,0,0,1.000,1.000,1.000,-90.00,180.00,-18.00,OPEN,0
669524.577,0,0,0,1.000,1.000,1.000,-90.00,180.00,-18.00,OPEN,0
669524.581,0,0,0,1.000,1.000,1.000,-90.00,180.00,-18.00,OPEN,0
669524.587,0,0,0,1.000,1.000,1.000,-90.00,180.00,-18.00,OPEN,0
669524.593,0,0,0,1.000,1.000,1.000,-90.00,180.00,-18.00,OPEN,0
669524.599,0,0,0,1.000,1.000,1.000,-90.00,180.00,-18.00,OPEN,0
669524.605,0,0,0,1.000,1.000,1.000,-90.00,180.00,-18.00,OPEN,0
669524.611,0,0,0,1.000,1.000,1.000,-90.00,180.00,-18.00,OPEN,0
669524.617,0,0,0,1.000,1.000,1.000,-90.00,180.00,-18.00,OPEN,0
669524.628,0,0,0,1.000,1.000,1.000,-90.00,180.00,-18.00,OPEN,0
669524.634,0,0,0,1.000,1.000,1.000,-90.00,180.00,-18.00,OPEN,0
669524.640,0,0,0,1.000,1.000,1.000,-90.00,180.00,-18.00,OPEN,0
669524.645,0,0,0,1.000,1.000,1.000,-90.00,180.00,-18.00,OPEN,0
669524.650,0,0,0,1.000,1.000,1.000,-90.00,180.00,-18.00,OPEN,0
669524.654,0,0,0,1.000,1.000,1.000,-90.00,180.00,-18.00,OPEN,0
669524.658,0,0,0,1.000,1.000,1.000,-90.00,180.00,-18.00,OPEN,0
669524.662,0,0,0,1.000,1.000,1.000,-90.00,180.00,-18.00,OPEN,0
669524.667,0,0,0,1.000,1.000,1.000,-90.00,180.00,-18.00,OPEN,0
669524.672,0,0,0,1.000,1.000,1.000,-90.00,180.00,-18.00,OPEN,0
669524.678,0,0,0,1.000,1.000,1.000,-90.00,180.00,-18.00,OPEN,0
669524.684,0,0,0,1.000,1.000,1.000,-90.00,180.00,-18.00,OPEN,0
669524.690,0,0,0,1.000,1.000,1.000,-90.00,180.00,-18.00,OPEN,0
669524.697,0,0,0,1.000,1.000,1.000,-90.00,180.00,-18.00,OPEN,0
669524.702,0,0,0,1.000,1.000,1.000,-90.00,180.00,-18.00,OPEN,0
669524.708,0,0,0,1.000,1.000,1.000,-90.00,180.00,-18.00,OPEN,0
669524.715,0,0,0,1.000,1.000,1.000,-90.00,180.00,-18.00,OPEN,0
669524.721,0,0,0,1.000,1.000,1.000,-90.00,180.00,-18.00,OPEN,0
669524.729,0,0,0,1.000,1.000,1.000,-90.00,180.00,-18.00,OPEN,0
669524.737,0,0,0,1.000,1.000,1.000,-90.00,180.00,-18.00,OPEN,0
669524.744,0,0,0,1.000,1.000,1.000,-90.00,180.00,-18.00,OPEN,0
669524.752,0,0,0,1.000,1.000,1.000,-90.00,180.00,-18.00,OPEN,0
669524.760,0,0,0,1.000,1.000,1.000,-90.00,180.00,-18.00,OPEN,0
669524.765,0,0,0,1.000,1.000,1.000,-90.00,180.00,-18.00,OPEN,0
669524.770,0,0,0,1.000,1.000,1.000,-90.00,180.00,-18.00,OPEN,0
669524.775,0,0,0,1.000,1.000,1.000,-90.00,180.00,-18.00,OPEN,0
669524.781,0,0,0,1.000,1.000,1.000,-90.00,180.00,-18.00,OPEN,0
669524.787,0,0,0,1.000,1.000,1.000,-90.00,180.00,-18.00,OPEN,0
669524.793,0,0,0,1.000,1.000,1.000,-90.00,180.00,-18.00,OPEN,0
669524.798,0,0,0,1.000,1.000,1.000,-90.00,180.00,-18.00,OPEN,0
669524.802,0,0,0,1.000,1.000,1.000,-90.00,180.00,-18.00,OPEN,0
669524.807,0,0,0,1.000,1.000,1.000,-90.00,180.00,-18.00,OPEN,0
669524.812,0,0,0,1.000,1.000,1.000,-90.00,180.00,-18.00,OPEN,0
669524.818,0,0,0,1.000,1.000,1.000,-90.00,180.00,-18.00,OPEN,0
669524.824,0,0,0,1.000,1.000,1.000,-90.00,180.00,-18.00,OPEN,0
669524.829,0,0,0,1.000,1.000,1.000,-90.00,180.00,-18.00,OPEN,0
669524.836,0,0,0,1.000,1.000,1.000,-90.00,180.00,-18.00,OPEN,0
669524.846,0,0,0,1.000,1.000,1.000,-90.00,180.00,-18.00,OPEN,0
669524.856,0,0,0,1.000,1.000,1.000,-90.00,180.00,-18.00,OPEN,0
669524.862,0,0,0,1.000,1.000,1.000,-90.00,180.00,-18.00,OPEN,0
669524.868,0,0,0,1.000,1.000,1.000,-90.00,180.00,-18.00,OPEN,0
669524.873,0,0,0,1.000,1.000,1.000,-90.00,180.00,-18.00,OPEN,0
669524.878,0,0,0,1.000,1.000,1.000,-90.00,180.00,-18.00,OPEN,0
669524.883,0,0,0,1.000,1.000,1.000,-90.00,180.00,-18.00,OPEN,0
669524.888,0,0,0,1.000,1.000,1.000,-90.00,180.00,-18.00,OPEN,0
669524.892,0,0,0,1.000,1.000,1.000,-90.00,180.00,-18.00,OPEN,0
669524.896,0,0,0,1.000,1.000,1.000,-90.00,180.00,-18.00,OPEN,0
669524.901,0,0,0,1.000,1.000,1.000,-90.00,180.00,-18.00,OPEN,0
669524.905,0,0,0,1.000,1.000,1.000,-90.00,180.00,-18.00,OPEN,0
669524.910,0,0,0,1.000,1.000,1.000,-90.00,180.00,-18.00,OPEN,0
669524.913,0,0,0,1.000,1.000,1.000,-90.00,180.00,-18.00,OPEN,0
669524.917,0,0,0,1.000,1.000,1.000,-90.00,180.00,-18.00,OPEN,0
669524.921,0,0,0,1.000,1.000,1.000,-90.00,180.00,-18.00,OPEN,0
669524.925,0,0,0,1.000,1.000,1.000,-90.00,180.00,-18.00,OPEN,0
669524.929,0,0,0,1.000,1.000,1.000,-90.00,180.00,-18.00,OPEN,0
669524.933,0,0,0,1.000,1.000,1.000,-90.00,180.00,-18.00,OPEN,0
669524.938,0,0,0,1.000,1.000,1.000,-90.00,180.00,-18.00,OPEN,0
669524.942,0,0,0,1.000,1.000,1.000,-90.00,180.00,-18.00,OPEN,0
669524.945,0,0,0,1.000,1.000,1.000,-90.00,180.00,-18.00,OPEN,0
669524.949,0,0,0,1.000,1.000,1.000,-90.00,180.00,-18.00,OPEN,0
669524.953,0,0,0,1.000,1.000,1.000,-90.00,180.00,-18.00,OPEN,0
669524.957,0,0,0,1.000,1.000,1.000,-90.00,180.00,-18.00,OPEN,0
669524.962,0,0,0,1.000,1.000,1.000,-90.00,180.00,-18.00,OPEN,0
669524.966,0,0,0,1.000,1.000,1.000,-90.00,180.00,-18.00,OPEN,0
669524.972,0,0,0,1.000,1.000,1.000,-90.00,180.00,-18.00,OPEN,0
669524.977,0,0,0,1.000,1.000,1.000,-90.00,180.00,-18.00,OPEN,0
669524.981,0,0,0,1.000,1.000,1.000,-90.00,180.00,-18.00,OPEN,0
669524.985,0,0,0,1.000,1.000,1.000,-90.00,180.00,-18.00,OPEN,0
669524.990,0,0,0,1.000,1.000,1.000,-90.00,180.00,-18.00,OPEN,0
669524.993,0,0,0,1.000,1.000,1.000,-90.00,180.00,-18.00,OPEN,0
669524.998,0,0,0,1.000,1.000,1.000,-90.00,180.00,-18.00,OPEN,0
669525.002,0,0,0,1.000,1.000,1.000,-90.00,180.00,-18.00,OPEN,0
669525.006,0,0,0,1.000,1.000,1.000,-90.00,180.00,-18.00,OPEN,0
669525.011,0,0,0,1.000,1.000,1.000,-90.00,180.00,-18.00,OPEN,0
669525.014,0,0,0,1.000,1.000,1.000,-90.00,180.00,-18.00,OPEN,0
669525.018,0,0,0,1.000,1.000,1.000,-90.00,180.00,-18.00,OPEN,0
669525.023,0,0,0,1.000,1.000,1.000,-90.00,180.00,-18.00,OPEN,0
669525.027,0,0,0,1.000,1.000,1.000,-90.00,180.00,-18.00,OPEN,0
669525.031,0,0,0,1.000,1.000,1.000,-90.00,180.00,-18.00,OPEN,0
669525.035,0,0,0,1.000,1.000,1.000,-90.00,180.00,-18.00,OPEN,0
669525.040,0,0,0,1.000,1.000,1.000,-90.00,180.00,-18.00,OPEN,0
669525.044,0,0,0,1.000,1.000,1.000,-90.00,180.00,-18.00,OPEN,0
669525.049,0,0,0,1.000,1.000,1.000,-90.00,180.00,-18.00,OPEN,0
669525.054,0,0,0,1.000,1.000,1.000,-90.00,180.00,-18.00,OPEN,0
669525.059,0,0,0,1.000,1.000,1.000,-90.00,180.00,-18.00,OPEN,0
669525.063,0,0,0,1.000,1.000,1.000,-90.00,180.00,-18.00,OPEN,0
669525.068,0,0,0,1.000,1.000,1.000,-90.00,180.00,-18.00,OPEN,0
669525.073,0,0,0,1.000,1.000,1.000,-90.00,180.00,-18.00,OPEN,0
669525.078,0,0,0,1.000,1.000,1.000,-90.00,180.00,-18.00,OPEN,0
669525.082,0,0,0,0.999,1.000,1.000,-90.00,180.00,-18.00,OPEN,0
669525.087,0,0,0,0.997,1.000,1.000,-90.00,180.00,-18.00,OPEN,0
669525.092,0,0,0,0.997,1.000,1.000,-90.00,180.00,-18.00,OPEN,0
669525.097,0,0,0,0.991,1.000,1.000,-90.00,180.00,-18.00,OPEN,0
669525.101,0,0,0,0.989,1.000,1.000,-90.00,180.00,-18.00,OPEN,0
669525.105,0,0,0,0.999,1.000,1.000,-90.00,180.00,-18.00,OPEN,0
669525.109,0,0,0,1.000,1.000,1.000,-90.00,180.00,-18.00,OPEN,0
669525.113,0,0,0,1.000,1.000,1.000,-90.00,180.00,-18.00,OPEN,0
669525.117,0,0,0,1.000,1.000,1.000,-90.00,180.00,-18.00,OPEN,0
669525.121,0,0,0,1.000,1.000,1.000,-90.00,180.00,-18.00,OPEN,0
669525.125,0,0,0,1.000,1.000,1.000,-90.00,180.00,-18.00,OPEN,0
669525.129,0,0,0,1.000,1.000,1.000,-90.00,180.00,-18.00,OPEN,0
669525.133,0,0,0,1.000,1.000,1.000,-90.00,180.00,-18.00,OPEN,0
669525.137,0,0,0,1.000,1.000,1.000,-90.00,180.00,-18.00,OPEN,0
669525.141,0,0,0,1.000,1.000,1.000,-90.00,180.00,-18.00,OPEN,0
669525.145,0,0,0,1.000,1.000,1.000,-90.00,180.00,-18.00,OPEN,0
669525.150,0,0,0,1.000,1.000,1.000,-90.00,180.00,-18.00,OPEN,0
669525.154,0,0,0,1.000,1.000,1.000,-90.00,180.00,-18.00,OPEN,0
669525.158,0,0,0,1.000,1.000,1.000,-90.00,180.00,-18.00,OPEN,0
669525.162,0,0,0,1.000,1.000,1.000,-90.00,180.00,-18.00,OPEN,0
669525.166,0,0,0,1.000,1.000,1.000,-90.00,180.00,-18.00,OPEN,0
669525.170,0,0,0,1.000,1.000,1.000,-90.00,180.00,-18.00,OPEN,0
669525.175,0,0,0,1.000,1.000,1.000,-90.00,180.00,-18.00,OPEN,0
669525.181,0,0,0,1.000,1.000,1.000,-90.00,180.00,-18.00,OPEN,0
669525.185,0,0,0,1.000,1.000,1.000,-90.00,180.00,-18.00,OPEN,0
669525.189,0,0,0,1.000,1.000,1.000,-90.00,180.00,-18.00,OPEN,0
669525.193,0,0,0,1.000,1.000,1.000,-90.00,180.00,-18.00,OPEN,0
669525.196,0,0,0,1.000,1.000,1.000,-90.00,180.00,-18.00,OPEN,0
669525.200,0,0,0,1.000,1.000,1.000,-90.00,180.00,-18.00,OPEN,0
669525.203,0,0,0,1.000,1.000,1.000,-90.00,180.00,-18.00,OPEN,0
669525.207,0,0,0,1.000,1.000,1.000,-90.00,180.00,-18.00,OPEN,0
669525.211,0,0,0,1.000,1.000,1.000,-90.00,180.00,-18.00,OPEN,0
669525.215,0,0,0,0.863,1.000,1.000,-90.00,180.00,-18.00,OPEN,0
669525.219,0,0,0,0.956,1.000,1.000,-90.00,180.00,-18.00,OPEN,0
669525.222,0,0,0,0.993,1.000,1.000,-90.00,180.00,-18.00,OPEN,0
669525.226,0,0,0,0.993,1.000,1.000,-90.00,180.00,-18.00,OPEN,0
669525.230,0,0,0,0.970,1.000,1.000,-90.00,180.00,-18.00,OPEN,0
669525.233,0,0,0,0.616,1.000,1.000,-90.00,180.00,-18.00,OPEN,0
669525.237,0,0,0,0.909,1.000,1.000,-90.00,180.00,-18.00,OPEN,0
669525.241,0,0,0,0.990,1.000,1.000,-90.00,180.00,-18.00,OPEN,0
669525.245,0,0,0,0.994,1.000,1.000,-90.00,180.00,-18.00,OPEN,0
669525.250,0,0,0,0.995,1.000,1.000,-90.00,180.00,-18.00,OPEN,0
669525.255,0,0,0,0.996,1.000,1.000,-90.00,180.00,-18.00,OPEN,0
669525.260,0,0,0,0.995,1.000,1.000,-90.00,180.00,-18.00,OPEN,0
669525.265,0,0,0,0.993,1.000,1.000,-90.00,180.00,-18.00,OPEN,0
669525.271,3,0,0,0.990,1.000,1.000,-90.00,180.00,-18.00,CLOSED,0
669525.278,3,0,0,0.985,1.000,1.000,-90.00,180.00,-18.00,CLOSED,0
669525.283,3,0,0,0.983,1.000,1.000,-90.00,180.00,-18.00,CLOSED,0
669525.289,3,0,0,0.985,1.000,1.000,-90.00,180.00,-18.00,CLOSED,0
669525.294,3,0,0,0.989,1.000,1.000,-90.00,180.00,-18.00,CLOSED,0
669525.298,3,0,0,0.995,1.000,1.000,-90.00,180.00,-18.00,CLOSED,0
669525.302,3,0,0,0.997,1.000,1.000,-90.00,180.00,-18.00,CLOSED,0
669525.306,3,0,0,0.999,1.000,1.000,-90.00,180.00,-18.00,CLOSED,0
669525.310,3,0,0,0.999,1.000,1.000,-90.00,180.00,-18.00,CLOSED,0
669525.314,3,0,0,1.000,1.000,1.000,-90.00,180.00,-18.00,CLOSED,0
669525.318,3,0,0,1.000,1.000,1.000,-90.00,180.00,-18.00,CLOSED,0
669525.322,3,0,0,1.000,1.000,1.000,-90.00,180.00,-18.00,CLOSED,0
669525.326,3,0,0,1.000,1.000,1.000,-90.00,180.00,-18.00,CLOSED,0
669525.330,3,0,0,1.000,1.000,1.000,-90.00,180.00,-18.00,CLOSED,0
669525.334,3,0,0,1.000,1.000,1.000,-90.00,180.00,-18.00,CLOSED,0
669525.339,3,0,0,1.000,1.000,1.000,-90.00,180.00,-18.00,CLOSED,0
669525.343,3,0,0,1.000,1.000,1.000,-90.00,180.00,-18.00,CLOSED,0
669525.346,3,0,0,1.000,1.000,1.000,-90.00,180.00,-18.00,CLOSED,0
669525.350,3,0,0,1.000,1.000,1.000,-90.00,180.00,-18.00,CLOSED,0
669525.355,3,0,0,1.000,1.000,1.000,-90.00,180.00,-18.00,CLOSED,0
669525.359,3,0,0,1.000,1.000,1.000,-90.00,180.00,-18.00,CLOSED,0
669525.363,3,0,0,1.000,1.000,1.000,-90.00,180.00,-18.00,CLOSED,0
669525.366,3,0,0,1.000,1.000,1.000,-90.00,180.00,-18.00,CLOSED,0
669525.370,3,0,0,1.000,1.000,1.000,-90.00,180.00,-18.00,CLOSED,0
669525.374,3,0,0,1.000,1.000,1.000,-90.00,180.00,-18.00,CLOSED,0
669525.379,3,0,0,0.999,1.000,1.000,-90.00,180.00,-18.00,CLOSED,0
669525.383,3,0,0,0.997,1.000,1.000,-90.00,180.00,-18.00,CLOSED,0
669525.388,3,0,0,0.992,1.000,1.000,-90.00,180.00,-18.00,CLOSED,0
669525.392,3,0,0,0.987,1.000,1.000,-90.00,180.00,-18.00,CLOSED,0
669525.396,3,0,0,0.985,1.000,1.000,-90.00,180.00,-18.00,CLOSED,0
669525.400,3,0,0,0.989,1.000,1.000,-90.00,180.00,-18.00,CLOSED,0
669525.404,3,0,0,0.993,1.000,1.000,-90.00,180.00,-18.00,CLOSED,0
669525.408,3,0,0,0.996,1.000,1.000,-90.00,180.00,-18.00,CLOSED,0
669525.412,3,0,0,0.997,1.000,1.000,-90.00,180.00,-18.00,CLOSED,0
669525.416,3,0,0,0.998,1.000,1.000,-90.00,180.00,-18.00,CLOSED,0
669525.420,3,0,0,0.998,1.000,1.000,-90.00,180.00,-18.00,CLOSED,0
669525.424,3,0,0,0.999,1.000,1.000,-90.00,180.00,-18.00,CLOSED,0
669525.428,3,0,0,0.999,1.000,1.000,-90.00,180.00,-18.00,CLOSED,0
669525.436,3,0,0,0.999,1.000,1.000,-90.00,180.00,-18.00,CLOSED,0
669525.447,3,0,0,1.000,1.000,1.000,-90.00,180.00,-18.00,CLOSED,0
669525.457,3,0,0,1.000,1.000,1.000,-90.00,180.00,-18.00,CLOSED,0
669525.464,3,0,0,1.000,1.000,1.000,-90.00,180.00,-18.00,CLOSED,0
669525.470,3,0,0,1.000,1.000,1.000,-90.00,180.00,-18.00,CLOSED,0
669525.476,3,0,0,1.000,1.000,1.000,-90.00,180.00,-18.00,CLOSED,0
669525.480,3,0,0,1.000,1.000,1.000,-90.00,180.00,-18.00,CLOSED,0
669525.485,3,0,0,1.000,1.000,1.000,-90.00,180.00,-18.00,CLOSED,0
669525.489,3,0,0,1.000,1.000,1.000,-90.00,180.00,-18.00,CLOSED,0
669525.494,3,0,0,1.000,1.000,1.000,-90.00,180.00,-18.00,CLOSED,0
669525.498,3,0,0,1.000,1.000,1.000,-90.00,180.00,-18.00,CLOSED,0
669525.502,3,0,0,1.000,1.000,1.000,-90.00,180.00,-18.00,CLOSED,0
669525.506,3,0,0,1.000,1.000,1.000,-90.00,180.00,-18.00,CLOSED,0
669525.510,3,0,0,1.000,1.000,1.000,-90.00,180.00,-18.00,CLOSED,0
669525.514,3,0,0,1.000,1.000,1.000,-90.00,180.00,-18.00,CLOSED,0
669525.518,3,0,0,1.000,1.000,1.000,-90.00,180.00,-18.00,CLOSED,0
669525.522,3,0,0,1.000,1.000,1.000,-90.00,180.00,-18.00,CLOSED,0
669525.527,3,0,0,1.000,1.000,1.000,-90.00,180.00,-18.00,CLOSED,0
669525.532,3,0,0,1.000,1.000,1.000,-90.00,180.00,-18.00,CLOSED,0
669525.539,3,0,0,1.000,1.000,1.000,-90.00,180.00,-18.00,CLOSED,0
669525.547,3,0,0,1.000,1.000,1.000,-90.00,180.00,-18.00,CLOSED,0
669525.552,3,0,0,1.000,1.000,1.000,-90.00,180.00,-18.00,CLOSED,0
669525.558,3,0,0,1.000,1.000,1.000,-90.00,180.00,-18.00,CLOSED,0
669525.563,3,0,0,1.000,1.000,1.000,-90.00,180.00,-18.00,CLOSED,0
669525.567,3,0,0,1.000,1.000,1.000,-90.00,180.00,-18.00,CLOSED,0
669525.572,3,0,0,1.000,1.000,1.000,-90.00,180.00,-18.00,CLOSED,0
669525.575,3,0,0,1.000,1.000,1.000,-90.00,180.00,-18.00,CLOSED,0
669525.579,3,0,0,1.000,1.000,1.000,-90.00,180.00,-18.00,CLOSED,0
669525.583,3,0,0,1.000,1.000,1.000,-90.00,180.00,-18.00,CLOSED,0
669525.586,3,0,0,1.000,1.000,1.000,-90.00,180.00,-18.00,CLOSED,0
669525.590,3,0,0,1.000,1.000,1.000,-90.00,180.00,-18.00,CLOSED,0
669525.594,3,0,0,1.000,1.000,1.000,-90.00,180.00,-18.00,CLOSED,0
669525.597,3,0,0,1.000,1.000,1.000,-90.00,180.00,-18.00,CLOSED,0
669525.601,3,0,0,1.000,1.000,1.000,-90.00,180.00,-18.00,CLOSED,0
669525.604,3,0,0,1.000,1.000,1.000,-90.00,180.00,-18.00,CLOSED,0
669525.609,3,0,0,1.000,1.000,1.000,-90.00,180.00,-18.00,CLOSED,0
669525.613,3,0,0,1.000,1.000,1.000,-90.00,180.00,-18.00,CLOSED,0
669525.617,3,0,0,1.000,1.000,1.000,-90.00,180.00,-18.00,CLOSED,0
669525.621,3,0,0,1.000,1.000,1.000,-90.00,180.00,-18.00,CLOSED,0
669525.625,3,0,0,1.000,1.000,1.000,-90.00,180.00,-18.00,CLOSED,0
669525.628,3,0,0,1.000,1.000,1.000,-90.00,180.00,-18.00,CLOSED,0
669525.632,3,0,0,1.000,1.000,1.000,-90.00,180.00,-18.00,CLOSED,0
669525.636,3,0,0,1.000,1.000,1.000,-90.00,180.00,-18.00,CLOSED,0
669525.639,3,0,0,1.000,1.000,1.000,-90.00,180.00,-18.00,CLOSED,0
669525.643,3,0,0,1.000,1.000,1.000,-90.00,180.00,-18.00,CLOSED,0
669525.646,3,0,0,1.000,1.000,1.000,-90.00,180.00,-18.00,CLOSED,0
669525.650,3,0,0,1.000,1.000,1.000,-90.00,180.00,-18.00,CLOSED,0
669525.654,3,0,0,1.000,1.000,1.000,-90.00,180.00,-18.00,CLOSED,0
669525.657,3,0,0,1.000,1.000,1.000,-90.00,180.00,-18.00,CLOSED,0
669525.661,3,0,0,1.000,1.000,1.000,-90.00,180.00,-18.00,CLOSED,0
669525.665,3,0,0,1.000,1.000,1.000,-90.00,180.00,-18.00,CLOSED,0
669525.668,3,0,0,1.000,1.000,1.000,-90.00,180.00,-18.00,CLOSED,0
669525.672,3,0,0,1.000,1.000,1.000,-90.00,180.00,-18.00,CLOSED,0
669525.675,3,0,0,1.000,1.000,1.000,-90.00,180.00,-18.00,CLOSED,0
669525.680,3,0,0,1.000,1.000,1.000,-90.00,180.00,-18.00,CLOSED,0
669525.684,3,0,0,0.999,1.000,1.000,-90.00,180.00,-18.00,CLOSED,0
669525.687,3,0,0,0.999,1.000,1.000,-90.00,180.00,-18.00,CLOSED,0
669525.691,3,0,0,0.999,1.000,1.000,-90.00,180.00,-18.00,CLOSED,0
669525.695,3,0,0,1.000,1.000,1.000,-90.00,180.00,-18.00,CLOSED,0
669525.698,3,0,0,1.000,1.000,1.000,-90.00,180.00,-18.00,CLOSED,0
669525.702,3,0,0,1.000,1.000,1.000,-90.00,180.00,-18.00,CLOSED,0
669525.705,3,0,0,1.000,1.000,1.000,-90.00,180.00,-18.00,CLOSED,0
669525.710,3,0,0,1.000,1.000,1.000,-90.00,180.00,-18.00,CLOSED,0
669525.714,3,0,0,1.000,1.000,1.000,-90.00,180.00,-18.00,CLOSED,0
669525.718,3,0,0,1.000,1.000,1.000,-90.00,180.00,-18.00,CLOSED,0
669525.722,3,0,0,1.000,1.000,1.000,-90.00,180.00,-18.00,CLOSED,0
669525.726,3,0,0,1.000,1.000,1.000,-90.00,180.00,-18.00,CLOSED,0
669525.730,3,0,0,1.000,1.000,1.000,-90.00,180.00,-18.00,CLOSED,0
669525.734,3,0,0,1.000,1.000,1.000,-90.00,180.00,-18.00,CLOSED,0
669525.738,3,0,0,1.000,1.000,1.000,-90.00,180.00,-18.00,CLOSED,0
669525.742,3,0,0,1.000,1.000,1.000,-90.00,180.00,-18.00,CLOSED,0
669525.746,3,0,0,1.000,1.000,1.000,-90.00,180.00,-18.00,CLOSED,0
669525.750,3,0,0,1.000,1.000,1.000,-90.00,180.00,-18.00,CLOSED,0
669525.754,3,0,0,1.000,1.000,1.000,-90.00,180.00,-18.00,CLOSED,0
669525.757,3,0,0,0.984,1.000,1.000,-90.00,180.00,-18.00,CLOSED,0
669525.761,3,0,0,0.751,1.000,1.000,-90.00,180.00,-18.00,CLOSED,0
669525.764,3,0,0,0.676,1.000,1.000,-90.00,180.00,-18.00,CLOSED,0
669525.768,3,0,0,0.897,1.000,1.000,-90.00,180.00,-18.00,CLOSED,0
669525.771,3,0,0,0.933,1.000,1.000,-90.00,180.00,-18.00,CLOSED,0
669525.775,3,0,0,0.995,1.000,1.000,-90.00,180.00,-18.00,CLOSED,0
669525.779,3,0,0,1.000,1.000,1.000,-90.00,180.00,-18.00,CLOSED,0
669525.782,3,0,0,1.000,1.000,1.000,-90.00,180.00,-18.00,CLOSED,0
669525.786,3,0,0,1.000,1.000,1.000,-90.00,180.00,-18.00,CLOSED,0
669525.790,3,0,0,1.000,1.000,1.000,-90.00,180.00,-18.00,CLOSED,0
669525.793,0,0,0,1.000,1.000,1.000,-90.00,180.00,-18.00,CLOSED,0
669525.797,0,0,0,1.000,1.000,1.000,-90.00,180.00,-18.00,CLOSED,0
669525.800,0,0,0,1.000,1.000,1.000,-90.00,180.00,-18.00,CLOSED,0
669525.804,0,0,0,1.000,1.000,1.000,-90.00,180.00,-18.00,CLOSED,0
669525.808,0,0,0,1.000,1.000,1.000,-90.00,180.00,-18.00,CLOSED,0
669525.812,0,0,0,1.000,1.000,1.000,-90.00,180.00,-18.00,CLOSED,0
669525.815,0,0,0,1.000,1.000,1.000,-90.00,180.00,-18.00,CLOSED,0
669525.819,0,0,0,1.000,1.000,1.000,-90.00,180.00,-18.00,CLOSED,0
669525.823,0,0,0,1.000,1.000,1.000,-90.00,180.00,-18.00,CLOSED,0
669525.827,0,0,0,1.000,1.000,1.000,-90.00,180.00,-18.00,CLOSED,0
669525.830,0,0,0,1.000,1.000,1.000,-90.00,180.00,-18.00,CLOSED,0
669525.834,0,0,0,1.000,1.000,1.000,-90.00,180.00,-18.00,CLOSED,0
669525.838,0,0,0,1.000,1.000,1.000,-90.00,180.00,-18.00,CLOSED,0
669525.841,0,0,0,1.000,1.000,1.000,-90.00,180.00,-18.00,CLOSED,0
669525.845,0,0,0,1.000,1.000,1.000,-90.00,180.00,-18.00,CLOSED,0
669525.848,0,0,0,1.000,1.000,1.000,-90.00,180.00,-18.00,CLOSED,0
669525.852,0,0,0,1.000,1.000,1.000,-90.00,180.00,-18.00,CLOSED,0
669525.855,0,0,0,1.000,1.000,1.000,-90.00,180.00,-18.00,CLOSED,0
669525.859,0,0,0,1.000,1.000,1.000,-90.00,180.00,-18.00,CLOSED,0
669525.862,0,0,0,1.000,1.000,1.000,-90.00,180.00,-18.00,CLOSED,0
669525.866,0,0,0,1.000,1.000,1.000,-90.00,180.00,-18.00,CLOSED,0
669525.870,0,0,0,1.000,1.000,1.000,-90.00,180.00,-18.00,CLOSED,0
669525.874,0,0,0,1.000,1.000,1.000,-90.00,180.00,-18.00,CLOSED,0
669525.877,0,0,0,1.000,1.000,1.000,-90.00,180.00,-18.00,CLOSED,0
669525.881,0,0,0,1.000,1.000,1.000,-90.00,180.00,-18.00,CLOSED,0
669525.885,0,0,0,1.000,1.000,1.000,-90.00,180.00,-18.00,CLOSED,0
669525.888,0,0,0,1.000,1.000,1.000,-90.00,180.00,-18.00,CLOSED,0
669525.892,0,0,0,1.000,1.000,1.000,-90.00,180.00,-18.00,CLOSED,0
669525.896,0,0,0,1.000,1.000,1.000,-90.00,180.00,-18.00,CLOSED,0
669525.901,0,0,0,1.000,1.000,1.000,-90.00,180.00,-18.00,CLOSED,0
669525.905,0,0,0,1.000,1.000,1.000,-90.00,180.00,-18.00,CLOSED,0
669525.909,0,0,0,1.000,1.000,1.000,-90.00,180.00,-18.00,CLOSED,0
669525.914,0,0,0,1.000,1.000,1.000,-90.00,180.00,-18.00,CLOSED,0
669525.918,0,0,0,1.000,1.000,1.000,-90.00,180.00,-18.00,CLOSED,0
669525.922,0,0,0,1.000,1.000,1.000,-90.00,180.00,-18.00,CLOSED,0
669525.926,0,0,0,1.000,1.000,1.000,-90.00,180.00,-18.00,CLOSED,0
669525.930,0,0,0,1.000,1.000,1.000,-90.00,180.00,-18.00,CLOSED,0
669525.933,0,0,0,1.000,1.000,1.000,-90.00,180.00,-18.00,CLOSED,0
669525.937,0,0,0,1.000,1.000,1.000,-90.00,180.00,-18.00,CLOSED,0
669525.941,0,0,0,1.000,1.000,1.000,-90.00,180.00,-18.00,CLOSED,0
669525.944,0,0,0,1.000,1.000,1.000,-90.00,180.00,-18.00,CLOSED,0
669525.947,0,0,0,1.000,1.000,1.000,-90.00,180.00,-18.00,CLOSED,0
669525.951,0,0,0,1.000,1.000,1.000,-90.00,180.00,-18.00,CLOSED,0
669525.955,0,0,0,1.000,1.000,1.000,-90.00,180.00,-18.00,CLOSED,0
669525.959,0,0,0,1.000,1.000,1.000,-90.00,180.00,-18.00,CLOSED,0
669525.963,0,0,0,1.000,1.000,1.000,-90.00,180.00,-18.00,CLOSED,0
669525.967,0,0,0,1.000,1.000,1.000,-90.00,180.00,-18.00,CLOSED,0
669525.970,0,0,0,1.000,1.000,1.000,-90.00,180.00,-18.00,CLOSED,0
669525.974,0,0,0,1.000,1.000,1.000,-90.00,180.00,-18.00,CLOSED,0
669525.978,0,0,0,1.000,1.000,1.000,-90.00,180.00,-18.00,CLOSED,0
669525.981,0,0,0,1.000,1.000,1.000,-90.00,180.00,-18.00,CLOSED,0
669525.984,0,0,0,1.000,1.000,1.000,-90.00,180.00,-18.00,CLOSED,0
669525.988,0,0,0,1.000,1.000,1.000,-90.00,180.00,-18.00,CLOSED,0
669525.992,0,0,0,1.000,1.000,1.000,-90.00,180.00,-18.00,CLOSED,0
669525.996,0,0,0,1.000,1.000,1.000,-90.00,180.00,-18.00,CLOSED,0
669526.000,0,0,0,1.000,1.000,1.000,-90.00,180.00,-18.00,CLOSED,0
669526.004,0,0,0,1.000,1.000,1.000,-90.00,180.00,-18.00,CLOSED,0
669526.007,0,0,0,1.000,1.000,1.000,-90.00,180.00,-18.00,CLOSED,0
669526.012,0,0,0,1.000,1.000,1.000,-90.00,180.00,-18.00,CLOSED,0
669526.015,0,0,0,1.000,1.000,1.000,-90.00,180.00,-18.00,CLOSED,0
669526.019,0,0,0,1.000,1.000,1.000,-90.00,180.00,-18.00,CLOSED,0
669526.023,0,0,0,1.000,1.000,1.000,-90.00,180.00,-18.00,CLOSED,0
669526.026,0,0,0,1.000,1.000,1.000,-90.00,180.00,-18.00,CLOSED,0
669526.030,0,0,0,1.000,1.000,1.000,-90.00,180.00,-18.00,CLOSED,0
669526.034,0,0,0,1.000,1.000,1.000,-90.00,180.00,-18.00,CLOSED,0
669526.038,0,0,0,1.000,1.000,1.000,-90.00,180.00,-18.00,CLOSED,0
669526.042,0,0,0,1.000,1.000,1.000,-90.00,180.00,-18.00,CLOSED,0
669526.047,0,0,0,1.000,1.000,1.000,-90.00,180.00,-18.00,CLOSED,0
669526.051,0,0,0,1.000,1.000,1.000,-90.00,180.00,-18.00,CLOSED,0
669526.055,0,0,0,1.000,1.000,1.000,-90.00,180.00,-18.00,CLOSED,0
669526.059,0,0,0,1.000,1.000,1.000,-90.00,180.00,-18.00,CLOSED,0
669526.063,0,0,0,1.000,1.000,1.000,-90.00,180.00,-18.00,CLOSED,0
669526.067,0,0,0,1.000,1.000,1.000,-90.00,180.00,-18.00,CLOSED,0
669526.071,0,0,0,1.000,1.000,1.000,-90.00,180.00,-18.00,CLOSED,0
669526.074,0,0,0,1.000,1.000,1.000,-90.00,180.00,-18.00,CLOSED,0
669526.078,0,0,0,1.000,1.000,1.000,-90.00,180.00,-18.00,CLOSED,0
669526.081,0,0,0,1.000,1.000,1.000,-90.00,180.00,-18.00,CLOSED,0
669526.085,0,0,0,1.000,1.000,1.000,-90.00,180.00,-18.00,CLOSED,0
669526.089,0,0,0,1.000,1.000,1.000,-90.00,180.00,-18.00,CLOSED,0
669526.092,0,0,0,1.000,1.000,1.000,-90.00,180.00,-18.00,CLOSED,0
669526.096,0,0,0,1.000,1.000,1.000,-90.00,180.00,-18.00,CLOSED,0
669526.099,0,0,0,1.000,1.000,1.000,-90.00,180.00,-18.00,CLOSED,0
669526.103,0,0,0,1.000,1.000,1.000,-90.00,180.00,-18.00,CLOSED,0
669526.107,0,0,0,1.000,1.000,1.000,-90.00,180.00,-18.00,CLOSED,0
669526.111,0,0,0,1.000,1.000,1.000,-90.00,180.00,-18.00,CLOSED,0
669526.115,0,0,0,1.000,1.000,1.000,-90.00,180.00,-18.00,CLOSED,0
669526.120,0,0,0,1.000,1.000,1.000,-90.00,180.00,-18.00,CLOSED,0
669526.125,0,0,0,1.000,1.000,1.000,-90.00,180.00,-18.00,CLOSED,0
669526.129,0,0,0,1.000,1.000,1.000,-90.00,180.00,-18.00,CLOSED,0
669526.133,0,0,0,1.000,1.000,1.000,-90.00,180.00,-18.00,CLOSED,0
669526.137,0,0,0,1.000,1.000,1.000,-90.00,180.00,-18.00,CLOSED,0
669526.140,0,0,0,1.000,1.000,1.000,-90.00,180.00,-18.00,CLOSED,0
669526.144,0,0,0,1.000,1.000,1.000,-90.00,180.00,-18.00,CLOSED,0
669526.147,0,0,0,1.000,1.000,1.000,-90.00,180.00,-18.00,CLOSED,0
669526.151,0,0,0,1.000,1.000,1.000,-90.00,180.00,-18.00,CLOSED,0
669526.154,0,0,0,1.000,1.000,1.000,-90.00,180.00,-18.00,CLOSED,0
669526.158,0,0,0,1.000,1.000,1.000,-90.00,180.00,-18.00,CLOSED,0
669526.161,0,0,0,1.000,1.000,1.000,-90.00,180.00,-18.00,CLOSED,0
669526.165,0,0,0,1.000,1.000,1.000,-90.00,180.00,-18.00,CLOSED,0
669526.168,0,0,0,1.000,1.000,1.000,-90.00,180.00,-18.00,CLOSED,0
669526.172,0,0,0,1.000,1.000,1.000,-90.00,180.00,-18.00,CLOSED,0
669526.176,0,0,0,1.000,1.000,1.000,-90.00,180.00,-18.00,CLOSED,0
669526.179,0,0,0,1.000,1.000,1.000,-90.00,180.00,-18.00,CLOSED,0
669526.183,0,0,0,1.000,1.000,1.000,-90.00,180.00,-18.00,CLOSED,0
669526.187,0,0,0,1.000,1.000,1.000,-90.00,180.00,-18.00,CLOSED,0
669526.191,0,0,0,1.000,1.000,1.000,-90.00,180.00,-18.00,CLOSED,0
669526.194,0,0,0,1.000,1.000,1.000,-90.00,180.00,-18.00,CLOSED,0
669526.198,0,0,0,1.000,1.000,1.000,-90.00,180.00,-18.00,CLOSED,0
669526.201,0,0,0,1.000,1.000,1.000,-90.00,180.00,-18.00,CLOSED,0
669526.205,0,0,0,1.000,1.000,1.000,-90.00,180.00,-18.00,CLOSED,0
669526.209,0,0,0,1.000,1.000,1.000,-90.00,180.00,-18.00,CLOSED,0
669526.212,0,0,0,1.000,1.000,1.000,-90.00,180.00,-18.00,CLOSED,0
669526.216,0,0,0,1.000,1.000,1.000,-90.00,180.00,-18.00,CLOSED,0
669526.219,0,0,0,1.000,1.000,1.000,-90.00,180.00,-18.00,CLOSED,0
669526.223,0,0,0,1.000,1.000,1.000,-90.00,180.00,-18.00,CLOSED,0
669526.227,0,0,0,1.000,1.000,1.000,-90.00,180.00,-18.00,CLOSED,0
669526.230,0,0,0,1.000,1.000,1.000,-90.00,180.00,-18.00,CLOSED,0
669526.234,0,0,0,1.000,1.000,1.000,-90.00,180.00,-18.00,CLOSED,0
669526.237,0,0,0,1.000,1.000,1.000,-90.00,180.00,-18.00,CLOSED,0
669526.241,0,0,0,1.000,1.000,1.000,-90.00,180.00,-18.00,CLOSED,0
669526.244,0,0,0,1.000,1.000,1.000,-90.00,180.00,-18.00,CLOSED,0
669526.248,0,0,0,1.000,1.000,1.000,-90.00,180.00,-18.00,CLOSED,0
669526.251,0,0,0,1.000,1.000,1.000,-90.00,180.00,-18.00,CLOSED,0
669526.256,0,0,0,1.000,1.000,1.000,-90.00,180.00,-18.00,CLOSED,0
669526.260,0,0,0,1.000,1.000,1.000,-90.00,180.00,-18.00,CLOSED,0
669526.264,0,0,0,1.000,1.000,1.000,-90.00,180.00,-18.00,CLOSED,0
669526.268,0,0,0,1.000,1.000,1.000,-90.00,180.00,-18.00,CLOSED,0
669526.273,0,0,0,1.000,1.000,1.000,-90.00,180.00,-18.00,CLOSED,0
669526.277,0,0,0,1.000,1.000,1.000,-90.00,180.00,-18.00,CLOSED,0
669526.280,0,0,0,1.000,1.000,1.000,-90.00,180.00,-18.00,CLOSED,0
669526.284,0,0,0,1.000,1.000,1.000,-90.00,180.00,-18.00,CLOSED,0
669526.288,0,0,0,1.000,1.000,1.000,-90.00,180.00,-18.00,CLOSED,0
669526.292,0,0,0,1.000,1.000,1.000,-90.00,180.00,-18.00,CLOSED,0
669526.296,0,0,0,1.000,1.000,1.000,-90.00,180.00,-18.00,CLOSED,0
669526.299,0,0,0,1.000,1.000,1.000,-90.00,180.00,-18.00,CLOSED,0
669526.303,0,0,0,1.000,1.000,1.000,-90.00,180.00,-18.00,CLOSED,0
669526.307,0,0,0,1.000,1.000,1.000,-90.00,180.00,-18.00,CLOSED,0
669526.310,0,0,0,1.000,1.000,1.000,-90.00,180.00,-18.00,CLOSED,0
669526.314,0,0,0,1.000,1.000,1.000,-90.00,180.00,-18.00,CLOSED,0
669526.317,0,0,0,1.000,1.000,1.000,-90.00,180.00,-18.00,CLOSED,0
669526.320,0,0,0,1.000,1.000,1.000,-90.00,180.00,-18.00,CLOSED,0
669526.324,0,0,0,1.000,1.000,1.000,-90.00,180.00,-18.00,CLOSED,0
669526.328,0,0,0,1.000,1.000,1.000,-90.00,180.00,-18.00,CLOSED,0
669526.331,0,0,0,1.000,1.000,1.000,-90.00,180.00,-18.00,CLOSED,0
669526.335,0,0,0,1.000,1.000,1.000,-90.00,180.00,-18.00,CLOSED,0
669526.339,0,0,0,1.000,1.000,1.000,-90.00,180.00,-18.00,CLOSED,0
669526.344,0,0,0,1.000,1.000,1.000,-90.00,180.00,-18.00,CLOSED,0
669526.348,0,0,0,1.000,1.000,1.000,-90.00,180.00,-18.00,CLOSED,0
669526.353,0,0,0,1.000,1.000,1.000,-90.00,180.00,-18.00,CLOSED,0
669526.358,0,0,0,1.000,1.000,1.000,-90.00,180.00,-18.00,CLOSED,0
669526.362,0,0,0,1.000,1.000,1.000,-90.00,180.00,-18.00,CLOSED,0
669526.366,0,0,0,1.000,1.000,1.000,-90.00,180.00,-18.00,CLOSED,0
669526.370,0,0,0,1.000,1.000,1.000,-90.00,180.00,-18.00,CLOSED,0
669526.375,0,0,0,1.000,1.000,1.000,-90.00,180.00,-18.00,CLOSED,0
669526.378,0,0,0,1.000,1.000,1.000,-90.00,180.00,-18.00,CLOSED,0
669526.383,0,0,0,1.000,1.000,1.000,-90.00,180.00,-18.00,CLOSED,0
669526.386,0,0,0,1.000,1.000,1.000,-90.00,180.00,-18.00,CLOSED,0
669526.389,0,0,0,1.000,1.000,1.000,-90.00,180.00,-18.00,CLOSED,0
669526.393,0,0,0,1.000,1.000,1.000,-90.00,180.00,-18.00,CLOSED,0
669526.396,0,0,0,1.000,1.000,1.000,-90.00,180.00,-18.00,CLOSED,0
669526.401,0,0,0,1.000,1.000,1.000,-90.00,180.00,-18.00,CLOSED,0
669526.405,0,0,0,1.000,1.000,1.000,-90.00,180.00,-18.00,CLOSED,0
669526.409,0,0,0,1.000,1.000,1.000,-90.00,180.00,-18.00,CLOSED,0
669526.413,0,0,0,1.000,1.000,1.000,-90.00,180.00,-18.00,CLOSED,0
669526.417,0,0,0,1.000,1.000,1.000,-90.00,180.00,-18.00,CLOSED,0
669526.421,0,0,0,1.000,1.000,1.000,-90.00,180.00,-18.00,CLOSED,0
669526.425,0,0,0,1.000,1.000,1.000,-90.00,180.00,-18.00,CLOSED,0
669526.429,0,0,0,1.000,1.000,1.000,-90.00,180.00,-18.00,CLOSED,0
669526.433,0,0,0,1.000,1.000,1.000,-90.00,180.00,-18.00,CLOSED,0
669526.436,0,0,0,1.000,1.000,1.000,-90.00,180.00,-18.00,CLOSED,0
669526.440,0,0,0,1.000,1.000,1.000,-90.00,180.00,-18.00,CLOSED,0
669526.443,0,0,0,1.000,1.000,1.000,-90.00,180.00,-18.00,CLOSED,0
669526.447,0,0,0,1.000,1.000,1.000,-90.00,180.00,-18.00,CLOSED,0
669526.451,0,0,0,1.000,1.000,1.000,-90.00,180.00,-18.00,CLOSED,0
669526.454,0,0,0,1.000,1.000,1.000,-90.00,180.00,-18.00,CLOSED,0
669526.458,0,0,0,1.000,1.000,1.000,-90.00,180.00,-18.00,CLOSED,0
669526.462,0,0,0,1.000,1.000,1.000,-90.00,180.00,-18.00,CLOSED,0
669526.466,0,0,0,1.000,1.000,1.000,-90.00,180.00,-18.00,CLOSED,0
669526.469,0,0,0,1.000,1.000,1.000,-90.00,180.00,-18.00,CLOSED,0
669526.473,0,0,0,1.000,1.000,1.000,-90.00,180.00,-18.00,CLOSED,0
669526.477,0,0,0,1.000,1.000,1.000,-90.00,180.00,-18.00,CLOSED,0
669526.480,0,0,0,1.000,1.000,1.000,-90.00,180.00,-18.00,CLOSED,0
669526.484,0,0,0,1.000,1.000,1.000,-90.00,180.00,-18.00,CLOSED,0
669526.487,0,0,0,1.000,1.000,1.000,-90.00,180.00,-18.00,CLOSED,0
669526.491,0,0,0,1.000,1.000,1.000,-90.00,180.00,-18.00,CLOSED,0
669526.495,0,0,0,1.000,1.000,1.000,-90.00,180.00,-18.00,CLOSED,0
669526.498,0,0,0,1.000,1.000,1.000,-90.00,180.00,-18.00,CLOSED,0
669526.502,0,0,0,1.000,1.000,1.000,-90.00,180.00,-18.00,CLOSED,0
669526.506,0,0,0,1.000,1.000,1.000,-90.00,180.00,-18.00,CLOSED,0
669526.509,0,0,0,1.000,1.000,1.000,-90.00,180.00,-18.00,CLOSED,0
669526.512,0,0,0,1.000,1.000,1.000,-90.00,180.00,-18.00,CLOSED,0
669526.516,0,0,0,1.000,1.000,1.000,-90.00,180.00,-18.00,CLOSED,0
669526.519,0,0,0,1.000,1.000,1.000,-90.00,180.00,-18.00,CLOSED,0
669526.524,0,0,0,1.000,1.000,1.000,-90.00,180.00,-18.00,CLOSED,0
669526.528,0,0,0,1.000,1.000,1.000,-90.00,180.00,-18.00,CLOSED,0
669526.532,0,0,0,1.000,1.000,1.000,-90.00,180.00,-18.00,CLOSED,0
669526.535,0,0,0,1.000,1.000,1.000,-90.00,180.00,-18.00,CLOSED,0
669526.539,0,0,0,1.000,1.000,1.000,-90.00,180.00,-18.00,CLOSED,0
669526.543,0,0,0,1.000,1.000,1.000,-90.00,180.00,-18.00,CLOSED,0
669526.547,0,0,0,1.000,1.000,1.000,-90.00,180.00,-18.00,CLOSED,0
669526.551,0,0,0,1.000,1.000,1.000,-90.00,180.00,-18.00,CLOSED,0
669526.555,0,0,0,1.000,1.000,1.000,-90.00,180.00,-18.00,CLOSED,0
669526.558,0,0,0,1.000,1.000,1.000,-90.00,180.00,-18.00,CLOSED,0
669526.562,0,0,0,1.000,1.000,1.000,-90.00,180.00,-18.00,CLOSED,0
669526.565,0,0,0,1.000,1.000,1.000,-90.00,180.00,-18.00,CLOSED,0
669526.569,0,0,0,1.000,1.000,1.000,-90.00,180.00,-18.00,CLOSED,0
669526.572,0,0,0,1.000,1.000,1.000,-90.00,180.00,-18.00,CLOSED,0
669526.576,0,0,0,1.000,1.000,1.000,-90.00,180.00,-18.00,CLOSED,0
669526.579,0,0,0,1.000,1.000,1.000,-90.00,180.00,-18.00,CLOSED,0
669526.583,0,0,0,1.000,1.000,1.000,-90.00,180.00,-18.00,CLOSED,0
669526.586,0,0,0,1.000,1.000,1.000,-90.00,180.00,-18.00,CLOSED,0
669526.590,0,0,0,1.000,1.000,1.000,-90.00,180.00,-18.00,CLOSED,0
669526.593,0,0,0,1.000,1.000,1.000,-90.00,180.00,-18.00,CLOSED,0
669526.597,0,0,0,1.000,1.000,1.000,-90.00,180.00,-18.00,CLOSED,0
669526.600,0,0,0,1.000,1.000,1.000,-90.00,180.00,-18.00,CLOSED,0
669526.604,0,0,0,1.000,1.000,1.000,-90.00,180.00,-18.00,CLOSED,0
669526.608,0,0,0,1.000,1.000,1.000,-90.00,180.00,-18.00,CLOSED,0
669526.611,0,0,0,1.000,1.000,1.000,-90.00,180.00,-18.00,CLOSED,0
669526.615,0,0,0,1.000,1.000,1.000,-90.00,180.00,-18.00,CLOSED,0
669526.619,0,0,0,1.000,1.000,1.000,-90.00,180.00,-18.00,CLOSED,0
669526.622,0,0,0,1.000,1.000,1.000,-90.00,180.00,-18.00,CLOSED,0
669526.626,0,0,0,1.000,1.000,1.000,-90.00,180.00,-18.00,CLOSED,0
669526.630,0,0,0,1.000,1.000,1.000,-90.00,180.00,-18.00,CLOSED,0
669526.633,0,0,0,1.000,1.000,1.000,-90.00,180.00,-18.00,CLOSED,0
669526.637,0,0,0,1.000,1.000,1.000,-90.00,180.00,-18.00,CLOSED,0
669526.640,0,0,0,1.000,1.000,1.000,-90.00,180.00,-18.00,CLOSED,0
669526.644,0,0,0,1.000,1.000,1.000,-90.00,180.00,-18.00,CLOSED,0
669526.648,0,0,0,1.000,1.000,1.000,-90.00,180.00,-18.00,CLOSED,0
669526.652,0,0,0,1.000,1.000,1.000,-90.00,180.00,-18.00,CLOSED,0
669526.656,0,0,0,1.000,1.000,1.000,-90.00,180.00,-18.00,CLOSED,0
669526.661,0,0,0,1.000,1.000,1.000,-90.00,180.00,-18.00,CLOSED,0
669526.665,0,0,0,1.000,1.000,1.000,-90.00,180.00,-18.00,CLOSED,0
669526.669,0,0,0,1.000,1.000,1.000,-90.00,180.00,-18.00,CLOSED,0
669526.673,0,0,0,1.000,1.000,1.000,-90.00,180.00,-18.00,CLOSED,0
669526.677,0,0,0,1.000,1.000,1.000,-90.00,180.00,-18.00,CLOSED,0
669526.681,0,0,0,1.000,1.000,1.000,-90.00,180.00,-18.00,CLOSED,0
669526.685,0,0,0,1.000,1.000,1.000,-90.00,180.00,-18.00,CLOSED,0
669526.689,0,0,0,1.000,1.000,1.000,-90.00,180.00,-18.00,CLOSED,0
669526.692,0,0,0,1.000,1.000,1.000,-90.00,180.00,-18.00,CLOSED,0
669526.696,0,0,0,1.000,1.000,1.000,-90.00,180.00,-18.00,CLOSED,0
669526.699,0,0,0,1.000,1.000,1.000,-90.00,180.00,-18.00,CLOSED,0
669526.703,0,0,0,1.000,1.000,1.000,-90.00,180.00,-18.00,CLOSED,0
669526.706,0,0,0,1.000,1.000,1.000,-90.00,180.00,-18.00,CLOSED,0
669526.711,0,0,0,1.000,1.000,1.000,-90.00,180.00,-18.00,CLOSED,0
669526.715,0,0,0,1.000,1.000,1.000,-90.00,180.00,-18.00,CLOSED,0
669526.718,0,0,0,1.000,1.000,1.000,-90.00,180.00,-18.00,CLOSED,0
669526.722,0,0,0,1.000,1.000,1.000,-90.00,180.00,-18.00,CLOSED,0
669526.726,0,0,0,1.000,1.000,1.000,-90.00,180.00,-18.00,CLOSED,0
669526.730,0,0,0,1.000,1.000,1.000,-90.00,180.00,-18.00,CLOSED,0
669526.734,0,0,0,1.000,1.000,1.000,-90.00,180.00,-18.00,CLOSED,0
669526.739,0,0,0,1.000,1.000,1.000,-90.00,180.00,-18.00,CLOSED,0
669526.743,0,0,0,1.000,1.000,1.000,-90.00,180.00,-18.00,CLOSED,0
669526.747,0,0,0,1.000,1.000,1.000,-90.00,180.00,-18.00,CLOSED,0
669526.751,0,0,0,1.000,1.000,1.000,-90.00,180.00,-18.00,CLOSED,0
669526.755,0,0,0,1.000,1.000,1.000,-90.00,180.00,-18.00,CLOSED,0
669526.758,0,0,0,1.000,1.000,1.000,-90.00,180.00,-18.00,CLOSED,0
669526.762,0,0,0,1.000,1.000,1.000,-90.00,180.00,-18.00,CLOSED,0
669526.765,0,0,0,1.000,1.000,1.000,-90.00,180.00,-18.00,CLOSED,0
669526.769,0,0,0,1.000,1.000,1.000,-90.00,180.00,-18.00,CLOSED,0
669526.773,0,0,0,1.000,1.000,1.000,-90.00,180.00,-18.00,CLOSED,0
669526.777,0,0,0,1.000,1.000,1.000,-90.00,180.00,-18.00,CLOSED,0
669526.781,0,0,0,1.000,1.000,1.000,-90.00,180.00,-18.00,CLOSED,0
669526.784,0,0,0,1.000,1.000,1.000,-90.00,180.00,-18.00,CLOSED,0
669526.789,0,0,0,1.000,1.000,1.000,-90.00,180.00,-18.00,CLOSED,0
669526.792,0,0,0,1.000,1.000,1.000,-90.00,180.00,-18.00,CLOSED,0
669526.796,0,0,0,1.000,1.000,1.000,-90.00,180.00,-18.00,CLOSED,0
669526.800,0,0,0,1.000,1.000,1.000,-90.00,180.00,-18.00,CLOSED,0
669526.803,0,0,0,1.000,1.000,1.000,-90.00,180.00,-18.00,CLOSED,0
669526.807,0,0,0,0.996,1.000,1.000,-90.00,180.00,-18.00,CLOSED,0
669526.811,0,0,0,0.993,1.000,1.000,-90.00,180.00,-18.00,CLOSED,0
669526.814,0,0,0,1.000,1.000,1.000,-90.00,180.00,-18.00,CLOSED,0
669526.817,0,0,0,1.000,1.000,1.000,-90.00,180.00,-18.00,CLOSED,0
669526.821,0,0,0,1.000,1.000,1.000,-90.00,180.00,-18.00,CLOSED,0
669526.825,0,0,0,1.000,1.000,1.000,-90.00,180.00,-18.00,CLOSED,0
669526.829,0,0,0,1.000,1.000,1.000,-90.00,180.00,-18.00,CLOSED,0
669526.832,0,0,0,1.000,1.000,1.000,-90.00,180.00,-18.00,CLOSED,0
669526.836,0,0,0,0.990,1.000,1.000,-90.00,180.00,-18.00,CLOSED,0
669526.840,0,0,0,0.999,1.000,1.000,-90.00,180.00,-18.00,CLOSED,0
669526.843,0,0,0,0.991,1.000,1.000,-90.00,180.00,-18.00,CLOSED,0
669526.847,0,0,0,0.992,1.000,1.000,-90.00,180.00,-18.00,CLOSED,0
669526.851,0,0,0,0.998,1.000,1.000,-90.00,180.00,-18.00,CLOSED,0
669526.855,0,0,0,1.000,1.000,1.000,-90.00,180.00,-18.00,CLOSED,0
669526.858,0,0,0,1.000,1.000,1.000,-90.00,180.00,-18.00,CLOSED,0
669526.862,0,0,0,1.000,1.000,1.000,-90.00,180.00,-18.00,CLOSED,0
669526.866,0,0,0,1.000,1.000,1.000,-90.00,180.00,-18.00,CLOSED,0
669526.869,0,0,0,1.000,1.000,1.000,-90.00,180.00,-18.00,CLOSED,0
669526.873,0,0,0,1.000,1.000,1.000,-90.00,180.00,-18.00,CLOSED,0
669526.877,0,0,0,1.000,1.000,1.000,-90.00,180.00,-18.00,CLOSED,0
669526.880,0,0,0,1.000,1.000,1.000,-90.00,180.00,-18.00,CLOSED,0
669526.884,0,0,0,1.000,1.000,1.000,-90.00,180.00,-18.00,CLOSED,0
669526.887,0,0,0,1.000,1.000,1.000,-90.00,180.00,-18.00,CLOSED,0
669526.891,0,0,0,1.000,1.000,1.000,-90.00,180.00,-18.00,CLOSED,0
669526.894,0,0,0,1.000,1.000,1.000,-90.00,180.00,-18.00,CLOSED,0
669526.898,0,0,0,1.000,1.000,1.000,-90.00,180.00,-18.00,CLOSED,0
669526.901,0,0,0,1.000,1.000,1.000,-90.00,180.00,-18.00,CLOSED,0
669526.905,0,0,0,1.000,1.000,1.000,-90.00,180.00,-18.00,CLOSED,0
669526.908,0,0,0,1.000,1.000,1.000,-90.00,180.00,-18.00,CLOSED,0
669526.912,0,0,0,1.000,1.000,1.000,-90.00,180.00,-18.00,CLOSED,0
669526.916,0,0,0,1.000,1.000,1.000,-90.00,180.00,-18.00,CLOSED,0
669526.919,0,0,0,1.000,1.000,1.000,-90.00,180.00,-18.00,CLOSED,0
669526.923,0,0,0,1.000,1.000,1.000,-90.00,180.00,-18.00,CLOSED,0
669526.927,0,0,0,1.000,1.000,1.000,-90.00,180.00,-18.00,CLOSED,0
669526.931,0,0,0,1.000,1.000,1.000,-90.00,180.00,-18.00,CLOSED,0
669526.934,0,0,0,1.000,1.000,1.000,-90.00,180.00,-18.00,CLOSED,0
669526.938,0,0,0,1.000,1.000,1.000,-90.00,180.00,-18.00,CLOSED,0
669526.942,0,0,0,1.000,1.000,1.000,-90.00,180.00,-18.00,CLOSED,0
669526.945,0,0,0,1.000,1.000,1.000,-90.00,180.00,-18.00,CLOSED,0
669526.949,0,0,0,1.000,1.000,1.000,-90.00,180.00,-18.00,CLOSED,0
669526.952,0,0,0,1.000,1.000,1.000,-90.00,180.00,-18.00,CLOSED,0
669526.956,0,0,0,1.000,1.000,1.000,-90.00,180.00,-18.00,CLOSED,0
669526.960,0,0,0,1.000,1.000,1.000,-90.00,180.00,-18.00,CLOSED,0
669526.963,0,0,0,1.000,1.000,1.000,-90.00,180.00,-18.00,CLOSED,0
669526.967,0,0,0,1.000,1.000,1.000,-90.00,180.00,-18.00,CLOSED,0
669526.970,0,0,0,1.000,1.000,1.000,-90.00,180.00,-18.00,CLOSED,0
669526.974,0,0,0,1.000,1.000,1.000,-90.00,180.00,-18.00,CLOSED,0
669526.977,0,0,0,1.000,1.000,1.000,-90.00,180.00,-18.00,CLOSED,0
669526.981,0,0,0,1.000,1.000,1.000,-90.00,180.00,-18.00,CLOSED,0
669526.986,0,0,0,1.000,1.000,1.000,-90.00,180.00,-18.00,CLOSED,0
669526.991,0,0,0,1.000,1.000,1.000,-90.00,180.00,-18.00,CLOSED,0
669526.995,0,0,0,1.000,1.000,1.000,-90.00,180.00,-18.00,CLOSED,0
669526.999,0,0,0,1.000,1.000,1.000,-90.00,180.00,-18.00,CLOSED,0
669527.003,0,0,0,1.000,1.000,1.000,-90.00,180.00,-18.00,CLOSED,0
669527.008,0,0,0,1.000,1.000,1.000,-90.00,180.00,-18.00,CLOSED,0
669527.012,0,0,0,1.000,1.000,1.000,-90.00,180.00,-18.00,CLOSED,0
669527.016,0,0,0,1.000,1.000,1.000,-90.00,180.00,-18.00,CLOSED,0
669527.019,0,0,0,1.000,1.000,1.000,-90.00,180.00,-18.00,CLOSED,0
669527.023,0,0,0,1.000,1.000,1.000,-90.00,180.00,-18.00,CLOSED,0
669527.027,0,0,0,1.000,1.000,1.000,-90.00,180.00,-18.00,CLOSED,0
669527.030,0,0,0,1.000,1.000,1.000,-90.00,180.00,-18.00,CLOSED,0
669527.034,0,0,0,1.000,1.000,1.000,-90.00,180.00,-18.00,CLOSED,0
669527.037,0,0,0,1.000,1.000,1.000,-90.00,180.00,-18.00,CLOSED,0
669527.040,0,0,0,1.000,1.000,1.000,-90.00,180.00,-18.00,CLOSED,0
669527.044,0,0,0,1.000,1.000,1.000,-90.00,180.00,-18.00,CLOSED,0
669527.049,0,0,0,1.000,1.000,1.000,-90.00,180.00,-18.00,CLOSED,0
669527.053,0,0,0,1.000,1.000,1.000,-90.00,180.00,-18.00,CLOSED,0
669527.058,0,0,0,1.000,1.000,1.000,-90.00,180.00,-18.00,CLOSED,0
669527.062,0,0,0,1.000,1.000,1.000,-90.00,180.00,-18.00,CLOSED,0
669527.066,0,0,0,1.000,1.000,1.000,-90.00,180.00,-18.00,CLOSED,0
669527.070,0,0,0,1.000,1.000,1.000,-90.00,180.00,-18.00,CLOSED,0
669527.074,0,0,0,1.000,1.000,1.000,-90.00,180.00,-18.00,CLOSED,0
669527.077,0,0,0,1.000,1.000,1.000,-90.00,180.00,-18.00,CLOSED,0
669527.081,0,0,0,1.000,1.000,1.000,-90.00,180.00,-18.00,CLOSED,0
669527.084,0,0,0,1.000,1.000,1.000,-90.00,180.00,-18.00,CLOSED,0
669527.088,0,0,0,1.000,1.000,1.000,-90.00,180.00,-18.00,CLOSED,0
669527.092,0,0,0,1.000,1.000,1.000,-90.00,180.00,-18.00,CLOSED,0
669527.095,0,0,0,1.000,1.000,1.000,-90.00,180.00,-18.00,CLOSED,0
669527.098,0,0,0,1.000,1.000,1.000,-90.00,180.00,-18.00,CLOSED,0
669527.102,0,0,0,1.000,1.000,1.000,-90.00,180.00,-18.00,CLOSED,0
669527.106,0,0,0,1.000,1.000,1.000,-90.00,180.00,-18.00,CLOSED,0
669527.110,0,0,0,1.000,1.000,1.000,-90.00,180.00,-18.00,CLOSED,0
669527.113,0,0,0,1.000,1.000,1.000,-90.00,180.00,-18.00,CLOSED,0
669527.117,0,0,0,1.000,1.000,1.000,-90.00,180.00,-18.00,CLOSED,0
669527.121,0,0,0,1.000,1.000,1.000,-90.00,180.00,-18.00,CLOSED,0
669527.124,0,0,0,1.000,1.000,1.000,-90.00,180.00,-18.00,CLOSED,0
669527.127,0,0,0,1.000,1.000,1.000,-90.00,180.00,-18.00,CLOSED,0
669527.131,0,0,0,1.000,1.000,1.000,-90.00,180.00,-18.00,CLOSED,0
669527.135,0,0,0,1.000,1.000,1.000,-90.00,180.00,-18.00,CLOSED,0
669527.138,0,0,0,1.000,1.000,1.000,-90.00,180.00,-18.00,CLOSED,0
669527.142,0,0,0,1.000,1.000,1.000,-90.00,180.00,-18.00,CLOSED,0
669527.146,0,0,0,1.000,1.000,1.000,-90.00,180.00,-18.00,CLOSED,0
669527.149,0,0,0,1.000,1.000,1.000,-90.00,180.00,-18.00,CLOSED,0
669527.153,0,0,0,1.000,1.000,1.000,-90.00,180.00,-18.00,CLOSED,0
669527.156,0,0,0,1.000,1.000,1.000,-90.00,180.00,-18.00,CLOSED,0
669527.160,0,0,0,1.000,1.000,1.000,-90.00,180.00,-18.00,CLOSED,0
669527.164,0,0,0,1.000,1.000,1.000,-90.00,180.00,-18.00,CLOSED,0
669527.169,0,0,0,1.000,1.000,1.000,-90.00,180.00,-18.00,CLOSED,0
669527.173,0,0,0,1.000,1.000,1.000,-90.00,180.00,-18.00,CLOSED,0
669527.178,0,0,0,1.000,1.000,1.000,-90.00,180.00,-18.00,CLOSED,0
669527.182,0,0,0,1.000,1.000,1.000,-90.00,180.00,-18.00,CLOSED,0
669527.185,0,0,0,1.000,1.000,1.000,-90.00,180.00,-18.00,CLOSED,0
669527.189,0,0,0,1.000,1.000,1.000,-90.00,180.00,-18.00,CLOSED,0
669527.192,0,0,0,1.000,1.000,1.000,-90.00,180.00,-18.00,CLOSED,0
669527.196,0,0,0,1.000,1.000,1.000,-90.00,180.00,-18.00,CLOSED,0
669527.199,0,0,0,1.000,1.000,1.000,-90.00,180.00,-18.00,CLOSED,0
669527.203,0,0,0,1.000,1.000,1.000,-90.00,180.00,-18.00,CLOSED,0
669527.206,0,0,0,1.000,1.000,1.000,-90.00,180.00,-18.00,CLOSED,0
669527.211,0,0,0,1.000,1.000,1.000,-90.00,180.00,-18.00,CLOSED,0
669527.214,0,0,0,1.000,1.000,1.000,-90.00,180.00,-18.00,CLOSED,0
669527.217,0,0,0,1.000,1.000,1.000,-90.00,180.00,-18.00,CLOSED,0
669527.221,0,0,0,1.000,1.000,1.000,-90.00,180.00,-18.00,CLOSED,0
669527.225,0,0,0,1.000,1.000,1.000,-90.00,180.00,-18.00,CLOSED,0
669527.228,0,0,0,1.000,1.000,1.000,-90.00,180.00,-18.00,CLOSED,0
669527.232,0,0,0,1.000,1.000,1.000,-90.00,180.00,-18.00,CLOSED,0
669527.235,0,0,0,1.000,1.000,1.000,-90.00,180.00,-18.00,CLOSED,0
669527.238,0,0,0,1.000,1.000,1.000,-90.00,180.00,-18.00,CLOSED,0
669527.242,0,0,0,1.000,1.000,1.000,-90.00,180.00,-18.00,CLOSED,0
669527.245,0,0,0,1.000,1.000,1.000,-90.00,180.00,-18.00,CLOSED,0
669527.249,0,0,0,1.000,1.000,1.000,-90.00,180.00,-18.00,CLOSED,0
669527.252,0,0,0,1.000,1.000,1.000,-90.00,180.00,-18.00,CLOSED,0
669527.257,0,0,0,1.000,1.000,1.000,-90.00,180.00,-18.00,CLOSED,0
669527.261,0,0,0,1.000,1.000,1.000,-90.00,180.00,-18.00,CLOSED,0
669527.265,0,0,0,1.000,1.000,1.000,-90.00,180.00,-18.00,CLOSED,0
669527.269,0,0,0,1.000,1.000,1.000,-90.00,180.00,-18.00,CLOSED,0
669527.274,0,0,0,1.000,1.000,1.000,-90.00,180.00,-18.00,CLOSED,0
669527.278,0,0,0,1.000,1.000,1.000,-90.00,180.00,-18.00,CLOSED,0
669527.282,0,0,0,1.000,1.000,1.000,-90.00,180.00,-18.00,CLOSED,0
669527.286,0,0,0,1.000,1.000,1.000,-90.00,180.00,-18.00,CLOSED,0
669527.290,0,0,0,1.000,1.000,1.000,-90.00,180.00,-18.00,CLOSED,0
669527.293,0,0,0,1.000,1.000,1.000,-90.00,180.00,-18.00,CLOSED,0
669527.297,0,0,0,1.000,1.000,1.000,-90.00,180.00,-18.00,CLOSED,0
669527.300,0,0,0,1.000,1.000,1.000,-90.00,180.00,-18.00,CLOSED,0
669527.304,0,0,0,1.000,1.000,1.000,-90.00,180.00,-18.00,CLOSED,0
669527.308,0,0,0,1.000,1.000,1.000,-90.00,180.00,-18.00,CLOSED,0
669527.311,0,0,0,1.000,1.000,1.000,-90.00,180.00,-18.00,CLOSED,0
669527.314,0,0,0,1.000,1.000,1.000,-90.00,180.00,-18.00,CLOSED,0
669527.318,0,0,0,1.000,1.000,1.000,-90.00,180.00,-18.00,CLOSED,0
669527.322,0,0,0,1.000,1.000,1.000,-90.00,180.00,-18.00,CLOSED,0
669527.326,0,0,0,1.000,1.000,1.000,-90.00,180.00,-18.00,CLOSED,0
669527.330,0,0,0,1.000,1.000,1.000,-90.00,180.00,-18.00,CLOSED,0
669527.335,0,0,0,1.000,0.999,1.000,-90.00,180.00,-18.00,CLOSED,0
669527.339,0,0,0,1.000,0.998,1.000,-90.00,180.00,-18.00,CLOSED,0
669527.344,0,0,0,1.000,0.994,1.000,-90.00,180.00,-18.00,CLOSED,0
669527.348,0,0,0,1.000,0.973,1.000,-90.00,180.00,-18.00,CLOSED,0
669527.352,0,0,0,1.000,0.706,1.000,-90.00,180.00,-18.00,CLOSED,0
669527.356,0,0,0,1.000,0.835,1.000,-90.00,180.00,-18.00,CLOSED,0
669527.360,0,0,0,1.000,0.947,1.000,-90.00,180.00,-18.00,CLOSED,0
669527.364,0,0,0,1.000,0.962,1.000,-90.00,180.00,-18.00,CLOSED,0
669527.367,0,0,0,1.000,0.954,1.000,-90.00,180.00,-18.00,CLOSED,0
669527.371,0,0,0,1.000,0.886,1.000,-90.00,180.00,-18.00,CLOSED,0
669527.374,0,0,0,1.000,0.583,1.000,-90.00,180.00,-18.00,CLOSED,0
669527.378,0,0,0,1.000,0.745,1.000,-90.00,180.00,-18.00,CLOSED,0
669527.382,0,0,0,1.000,0.909,1.000,-90.00,180.00,-18.00,CLOSED,0
669527.385,0,0,0,1.000,0.961,0.999,-90.00,180.00,-18.00,CLOSED,0
669527.390,0,0,0,1.000,0.986,0.998,-90.00,180.00,-18.00,CLOSED,0
669527.394,0,0,0,1.000,0.994,0.997,-90.00,180.00,-18.00,CLOSED,0
669527.400,0,0,0,1.000,0.996,0.996,-90.00,180.00,-18.00,CLOSED,0
669527.404,0,0,0,1.000,0.997,0.995,-90.00,180.00,-18.00,CLOSED,0
669527.409,0,0,0,1.000,0.998,0.995,-90.00,180.00,-18.00,CLOSED,0
669527.413,0,0,0,1.000,0.998,0.994,-90.00,180.00,-18.00,CLOSED,0
669527.417,0,0,0,1.000,0.998,0.994,-90.00,180.00,-18.00,CLOSED,0
669527.421,0,0,0,1.000,0.999,0.992,-90.00,180.00,-18.00,CLOSED,0
669527.425,0,0,0,1.000,0.999,0.987,-90.00,180.00,-18.00,CLOSED,0
669527.429,0,0,0,1.000,0.999,0.979,-90.00,180.00,-18.00,CLOSED,0
669527.433,0,0,0,1.000,0.999,0.969,-90.00,180.00,-18.00,CLOSED,0
669527.436,0,0,0,1.000,1.000,0.968,-90.00,180.00,-18.00,CLOSED,0
669527.440,0,0,0,1.000,1.000,0.970,-90.00,180.00,-18.00,CLOSED,0
669527.443,0,0,0,1.000,1.000,0.976,-90.00,180.00,-18.00,CLOSED,0
669527.447,0,0,0,1.000,1.000,0.979,-90.00,180.00,-18.00,CLOSED,0
669527.450,0,0,0,1.000,0.999,0.980,-90.00,180.00,-18.00,CLOSED,0
669527.454,0,0,0,1.000,0.999,0.982,-90.00,180.00,-18.00,CLOSED,0
669527.460,0,0,0,1.000,0.998,0.983,-90.00,180.00,-18.00,CLOSED,0
669527.464,0,0,0,1.000,0.994,0.979,-90.00,180.00,-18.00,CLOSED,0
669527.469,0,0,0,1.000,0.980,0.973,-90.00,180.00,-18.00,CLOSED,0
669527.474,0,0,0,1.000,0.943,0.951,-90.00,180.00,-18.00,CLOSED,0
669527.478,0,0,0,1.000,0.888,0.924,-90.00,180.00,-18.00,CLOSED,0
669527.482,0,0,0,1.000,0.865,0.897,-90.00,180.00,-18.00,CLOSED,0
669527.486,0,0,0,1.000,0.869,0.887,-90.00,180.00,-18.00,CLOSED,0
669527.490,0,0,0,1.000,0.854,0.901,-90.00,180.00,-18.00,CLOSED,0
669527.494,0,0,0,1.000,0.831,0.929,-90.00,180.00,-18.00,CLOSED,0
669527.497,0,0,0,1.000,0.825,0.960,-90.00,180.00,-18.00,CLOSED,0
669527.500,0,0,0,1.000,0.859,0.977,-90.00,180.00,-18.00,CLOSED,0
669527.504,0,0,0,1.000,0.906,0.988,-90.00,180.00,-18.00,CLOSED,0
669527.508,0,0,0,1.000,0.942,0.992,-90.00,180.00,-18.00,CLOSED,0
669527.511,0,0,0,1.000,0.969,0.995,-90.00,180.00,-18.00,CLOSED,0
669527.515,0,0,0,1.000,0.981,0.997,-90.00,180.00,-18.00,CLOSED,0
669527.518,0,0,0,1.000,0.989,0.998,-90.00,180.00,-18.00,CLOSED,0
669527.522,0,0,0,1.000,0.992,0.998,-90.00,180.00,-18.00,CLOSED,0
669527.526,0,0,0,1.000,0.995,0.998,-90.00,180.00,-18.00,CLOSED,0
669527.529,0,0,0,1.000,0.996,0.998,-90.00,180.00,-18.00,CLOSED,0
669527.533,0,0,0,1.000,0.997,0.998,-90.00,180.00,-18.00,CLOSED,0
669527.537,0,0,0,1.000,0.996,0.997,-90.00,180.00,-18.00,CLOSED,0
669527.541,0,0,0,1.000,0.995,0.996,-90.00,180.00,-18.00,CLOSED,0
669527.544,0,0,0,1.000,0.989,0.994,-90.00,180.00,-18.00,CLOSED,0
669527.548,0,0,0,1.000,0.962,0.989,-90.00,180.00,-18.00,CLOSED,0
669527.552,0,0,0,1.000,0.843,0.982,-90.00,180.00,-18.00,CLOSED,0
669527.556,0,0,0,1.000,0.502,0.973,-90.00,180.00,-18.00,CLOSED,0
669527.560,0,0,0,1.000,0.804,0.970,-90.00,180.00,-18.00,CLOSED,0
669527.564,0,0,0,1.000,0.892,0.972,-90.00,180.00,-18.00,CLOSED,0
669527.568,0,0,0,1.000,0.892,0.979,-90.00,180.00,-18.00,CLOSED,0
669527.572,0,0,0,1.000,0.818,0.984,-90.00,180.00,-18.00,CLOSED,0
669527.576,0,0,0,1.000,0.657,0.989,-90.00,180.00,-18.00,CLOSED,0
669527.579,0,0,0,1.000,0.515,0.990,-90.00,180.00,-18.00,CLOSED,0
669527.583,0,0,0,1.000,0.650,0.990,-90.00,180.00,-18.00,CLOSED,0
669527.586,0,0,0,1.000,0.754,0.989,-90.00,180.00,-18.00,CLOSED,0
669527.590,0,0,0,1.000,0.770,0.988,-90.00,180.00,-18.00,CLOSED,0
669527.593,0,0,0,1.000,0.735,0.985,-90.00,180.00,-18.00,CLOSED,0
669527.597,0,0,0,1.000,0.698,0.983,-90.00,180.00,-18.00,CLOSED,0
669527.601,0,0,0,1.000,0.645,0.984,-90.00,180.00,-18.00,CLOSED,0
669527.605,0,0,0,1.000,0.608,0.985,-90.00,180.00,-18.00,CLOSED,0
669527.609,0,0,0,1.000,0.618,0.989,-90.00,180.00,-18.00,CLOSED,0
669527.612,0,0,0,1.000,0.718,0.990,-90.00,180.00,-18.00,CLOSED,0
669527.616,0,0,0,1.000,0.775,0.992,-90.00,180.00,-18.00,CLOSED,0
669527.619,0,0,0,1.000,0.844,0.990,-90.00,180.00,-18.00,CLOSED,0
669527.623,0,0,0,1.000,0.898,0.991,-90.00,180.00,-18.00,CLOSED,0
669527.626,0,0,0,1.000,0.915,0.989,-90.00,180.00,-18.00,CLOSED,0
669527.630,0,0,0,1.000,0.913,0.986,-90.00,180.00,-18.00,CLOSED,0
669527.634,0,0,0,1.000,0.908,0.983,-90.00,180.00,-18.00,CLOSED,0
669527.638,0,0,0,1.000,0.883,0.972,-90.00,180.00,-18.00,CLOSED,0
669527.642,0,0,0,1.000,0.875,0.955,-90.00,180.00,-18.00,CLOSED,0
669527.646,0,0,0,1.000,0.937,0.949,-90.00,180.00,-18.00,CLOSED,0
669527.650,0,0,0,1.000,0.978,0.950,-90.00,180.00,-18.00,CLOSED,0
669527.654,0,0,0,1.000,0.992,0.962,-90.00,180.00,-18.00,CLOSED,0
669527.658,0,0,0,1.000,0.996,0.970,-90.00,180.00,-18.00,CLOSED,0
669527.662,0,0,0,1.000,0.997,0.974,-90.00,180.00,-18.00,CLOSED,0
669527.665,0,0,0,1.000,0.998,0.978,-90.00,180.00,-18.00,CLOSED,0
669527.669,0,0,0,1.000,0.998,0.979,-90.00,180.00,-18.00,CLOSED,0
669527.672,0,0,0,1.000,0.997,0.977,-90.00,180.00,-18.00,CLOSED,0
669527.676,0,0,0,1.000,0.994,0.975,-90.00,180.00,-18.00,CLOSED,0
669527.680,0,0,0,1.000,0.987,0.974,-90.00,180.00,-18.00,CLOSED,0
669527.683,0,0,0,1.000,0.955,0.970,-90.00,180.00,-18.00,CLOSED,0
669527.686,0,0,0,1.000,0.852,0.962,-90.00,180.00,-18.00,CLOSED,0
669527.690,0,0,0,1.000,0.690,0.959,-90.00,180.00,-18.00,CLOSED,0
669527.695,0,0,0,1.000,0.531,0.957,-90.00,180.00,-18.00,CLOSED,0
669527.698,0,0,0,1.000,0.596,0.954,-90.00,180.00,-18.00,CLOSED,0
669527.702,0,0,0,1.000,0.509,0.960,-90.00,180.00,-18.00,CLOSED,0
669527.707,0,0,0,1.000,0.617,0.963,-90.00,180.00,-18.00,CLOSED,0
669527.711,0,0,0,1.000,0.725,0.964,-90.00,180.00,-18.00,CLOSED,0
669527.714,0,0,0,1.000,0.760,0.968,-90.00,180.00,-18.00,CLOSED,0
669527.718,0,0,0,1.000,0.755,0.971,-90.00,180.00,-18.00,CLOSED,0
669527.722,0,0,0,1.000,0.711,0.976,-90.00,180.00,-18.00,CLOSED,0
669527.726,0,0,0,1.000,0.637,0.980,-90.00,180.00,-18.00,CLOSED,0
669527.730,0,0,0,1.000,0.555,0.980,-90.00,180.00,-18.00,CLOSED,0
669527.733,0,0,0,1.000,0.519,0.983,-90.00,180.00,-18.00,CLOSED,0
669527.736,0,0,0,1.000,0.550,0.983,-90.00,180.00,-18.00,CLOSED,0
669527.740,0,0,0,1.000,0.720,0.981,-90.00,180.00,-18.00,CLOSED,0
669527.745,0,0,0,1.000,0.863,0.972,-90.00,180.00,-18.00,CLOSED,0
669527.748,0,0,0,1.000,0.956,0.953,-90.00,180.00,-18.00,CLOSED,0
669527.752,0,0,0,1.000,0.980,0.932,-90.00,180.00,-18.00,CLOSED,0
669527.756,0,0,0,1.000,0.987,0.903,-90.00,180.00,-18.00,CLOSED,0
669527.760,0,0,0,1.000,0.988,0.892,-90.00,180.00,-18.00,CLOSED,0
669527.764,0,0,0,1.000,0.986,0.895,-90.00,180.00,-18.00,CLOSED,0
669527.767,0,0,0,1.000,0.977,0.924,-90.00,180.00,-18.00,CLOSED,0
669527.771,0,0,0,1.000,0.950,0.968,-90.00,180.00,-18.00,CLOSED,0
669527.775,0,0,0,1.000,0.926,0.987,-90.00,180.00,-18.00,CLOSED,0
669527.778,0,0,0,1.000,0.941,0.996,-90.00,180.00,-18.00,CLOSED,0
669527.781,0,0,0,1.000,0.975,0.999,-90.00,180.00,-18.00,CLOSED,0
669527.785,0,0,0,1.000,0.987,0.999,-90.00,180.00,-18.00,CLOSED,0
669527.790,0,0,0,1.000,0.995,0.999,-90.00,180.00,-18.00,CLOSED,0
669527.794,0,0,0,1.000,0.999,0.999,-90.00,180.00,-18.00,CLOSED,0
669527.798,0,0,0,1.000,1.000,0.999,-90.00,180.00,-18.00,CLOSED,0
669527.802,0,0,0,1.000,1.000,0.999,-90.00,180.00,-18.00,CLOSED,0
669527.806,0,0,0,1.000,1.000,0.999,-90.00,180.00,-18.00,CLOSED,0
669527.810,0,0,0,1.000,1.000,1.000,-90.00,180.00,-18.00,CLOSED,0
669527.814,0,0,0,1.000,1.000,1.000,-90.00,180.00,-18.00,CLOSED,0
669527.818,0,0,0,1.000,1.000,1.000,-90.00,180.00,-18.00,CLOSED,0
669527.821,0,0,0,1.000,1.000,1.000,-90.00,180.00,-18.00,CLOSED,0
669527.825,0,0,0,1.000,0.998,1.000,-90.00,180.00,-18.00,CLOSED,0
669527.828,0,0,0,0.999,0.998,1.000,-90.00,180.00,-18.00,CLOSED,0
669527.832,0,0,0,0.999,0.998,1.000,-90.00,180.00,-18.00,CLOSED,0
669527.836,0,0,0,0.999,0.999,1.000,-90.00,180.00,-18.00,CLOSED,0
669527.840,0,0,0,1.000,1.000,1.000,-90.00,180.00,-18.00,CLOSED,0
669527.844,0,0,0,1.000,1.000,1.000,-90.00,180.00,-18.00,CLOSED,0
669527.848,0,0,0,1.000,1.000,1.000,-90.00,180.00,-18.00,CLOSED,0
669527.853,0,0,0,1.000,1.000,1.000,-90.00,180.00,-18.00,CLOSED,0
669527.858,0,0,0,1.000,1.000,1.000,-90.00,180.00,-18.00,CLOSED,0
669527.863,0,0,0,1.000,1.000,1.000,-90.00,180.00,-18.00,CLOSED,0
669527.868,0,0,0,1.000,1.000,1.000,-90.00,180.00,-18.00,CLOSED,0
669527.873,0,0,0,1.000,1.000,1.000,-90.00,180.00,-18.00,CLOSED,0
669527.878,0,0,0,1.000,1.000,1.000,-90.00,180.00,-18.00,CLOSED,0
669527.881,0,0,0,1.000,1.000,1.000,-90.00,180.00,-18.00,CLOSED,0
669527.886,0,0,0,1.000,1.000,1.000,-90.00,180.00,-18.00,CLOSED,0
669527.889,0,0,0,1.000,1.000,1.000,-90.00,180.00,-18.00,CLOSED,0
669527.893,0,0,0,1.000,1.000,1.000,-90.00,180.00,-18.00,CLOSED,0
669527.897,0,0,0,1.000,1.000,1.000,-90.00,180.00,-18.00,CLOSED,0
669527.900,0,0,0,1.000,1.000,1.000,-90.00,180.00,-18.00,CLOSED,0
669527.903,0,0,0,1.000,1.000,1.000,-90.00,180.00,-18.00,CLOSED,0
669527.907,0,0,0,1.000,1.000,1.000,-90.00,180.00,-18.00,CLOSED,0
669527.910,0,0,0,1.000,1.000,1.000,-90.00,180.00,-18.00,CLOSED,0
669527.914,0,0,0,1.000,1.000,1.000,-90.00,180.00,-18.00,CLOSED,0
669527.918,0,0,0,1.000,1.000,1.000,-90.00,180.00,-18.00,CLOSED,0
669527.922,0,0,0,1.000,1.000,1.000,-90.00,180.00,-18.00,CLOSED,0
669527.926,0,0,0,1.000,1.000,1.000,-90.00,180.00,-18.00,CLOSED,0
669527.929,0,0,0,1.000,1.000,1.000,-90.00,180.00,-18.00,CLOSED,0
669527.933,0,0,0,1.000,1.000,1.000,-90.00,180.00,-18.00,CLOSED,0
669527.936,0,0,0,1.000,1.000,1.000,-90.00,180.00,-18.00,CLOSED,0
669527.940,0,0,0,1.000,1.000,1.000,-90.00,180.00,-18.00,CLOSED,0
669527.943,0,0,0,1.000,1.000,1.000,-90.00,180.00,-18.00,CLOSED,0
669527.946,0,0,0,1.000,1.000,1.000,-90.00,180.00,-18.00,CLOSED,0
669527.950,0,0,0,1.000,1.000,1.000,-90.00,180.00,-18.00,CLOSED,0
669527.954,0,0,0,1.000,1.000,1.000,-90.00,180.00,-18.00,CLOSED,0
669527.958,0,0,0,1.000,1.000,1.000,-90.00,180.00,-18.00,CLOSED,0
669527.962,0,0,0,1.000,1.000,1.000,-90.00,180.00,-18.00,CLOSED,0
669527.966,0,0,0,1.000,1.000,1.000,-90.00,180.00,-18.00,CLOSED,0
669527.970,0,0,0,1.000,1.000,1.000,-90.00,180.00,-18.00,CLOSED,0
669527.974,0,0,0,1.000,1.000,1.000,-90.00,180.00,-18.00,CLOSED,0
669527.978,0,0,0,1.000,1.000,1.000,-90.00,180.00,-18.00,CLOSED,0
669527.981,0,0,0,1.000,1.000,1.000,-90.00,180.00,-18.00,CLOSED,0
669527.985,0,0,0,1.000,1.000,1.000,-90.00,180.00,-18.00,CLOSED,0
669527.989,0,0,0,1.000,1.000,1.000,-90.00,180.00,-18.00,CLOSED,0
669527.992,0,0,0,1.000,1.000,1.000,-90.00,180.00,-18.00,CLOSED,0
669527.996,0,0,0,1.000,1.000,1.000,-90.00,180.00,-18.00,CLOSED,0
669527.999,0,0,0,1.000,1.000,1.000,-90.00,180.00,-18.00,CLOSED,0
669528.003,0,0,0,1.000,1.000,1.000,-90.00,180.00,-18.00,CLOSED,0
669528.007,0,0,0,1.000,1.000,1.000,-90.00,180.00,-18.00,CLOSED,0
669528.010,0,0,0,1.000,1.000,1.000,-90.00,180.00,-18.00,CLOSED,0
669528.014,0,0,0,1.000,1.000,1.000,-90.00,180.00,-18.00,CLOSED,0
669528.019,0,0,0,1.000,1.000,1.000,-90.00,180.00,-18.00,CLOSED,0
669528.025,0,0,0,1.000,1.000,1.000,-90.00,180.00,-18.00,CLOSED,0
669528.031,0,0,0,1.000,1.000,1.000,-90.00,180.00,-18.00,CLOSED,0
669528.036,0,0,0,1.000,1.000,1.000,-90.00,180.00,-18.00,CLOSED,0
669528.041,0,0,0,1.000,1.000,1.000,-90.00,180.00,-18.00,CLOSED,0
669528.045,0,0,0,1.000,1.000,1.000,-90.00,180.00,-18.00,CLOSED,0
669528.050,0,0,0,1.000,1.000,1.000,-90.00,180.00,-18.00,CLOSED,0
669528.054,0,0,0,1.000,1.000,1.000,-90.00,180.00,-18.00,CLOSED,0
669528.057,0,0,0,1.000,1.000,1.000,-90.00,180.00,-18.00,CLOSED,0
669528.061,0,0,0,1.000,1.000,1.000,-90.00,180.00,-18.00,CLOSED,0
669528.064,0,0,0,1.000,1.000,1.000,-90.00,180.00,-18.00,CLOSED,0
669528.068,0,0,0,1.000,1.000,1.000,-90.00,180.00,-18.00,CLOSED,0
669528.071,0,0,0,1.000,1.000,1.000,-90.00,180.00,-18.00,CLOSED,0
669528.075,0,0,0,1.000,1.000,1.000,-90.00,180.00,-18.00,CLOSED,0
669528.078,0,0,0,1.000,1.000,1.000,-90.00,180.00,-18.00,CLOSED,0
669528.082,0,0,0,1.000,1.000,1.000,-90.00,180.00,-18.00,CLOSED,0
669528.086,0,0,0,1.000,1.000,1.000,-90.00,180.00,-18.00,CLOSED,0
669528.090,0,0,0,1.000,1.000,1.000,-90.00,180.00,-18.00,CLOSED,0
669528.093,0,0,0,1.000,1.000,1.000,-90.00,180.00,-18.00,CLOSED,0
669528.097,0,0,0,1.000,1.000,1.000,-90.00,180.00,-18.00,CLOSED,0
669528.101,0,0,0,1.000,1.000,1.000,-90.00,180.00,-18.00,CLOSED,0
669528.105,0,0,0,1.000,1.000,1.000,-90.00,180.00,-18.00,CLOSED,0
669528.108,0,0,0,1.000,1.000,1.000,-90.00,180.00,-18.00,CLOSED,0
669528.112,0,0,0,1.000,1.000,1.000,-90.00,180.00,-18.00,CLOSED,0
669528.115,0,0,0,1.000,1.000,1.000,-90.00,180.00,-18.00,CLOSED,0
669528.119,0,0,0,1.000,1.000,1.000,-90.00,180.00,-18.00,CLOSED,0
669528.123,0,0,0,1.000,1.000,1.000,-90.00,180.00,-18.00,CLOSED,0
669528.126,0,0,0,1.000,1.000,1.000,-90.00,180.00,-18.00,CLOSED,0
669528.130,0,0,0,1.000,1.000,1.000,-90.00,180.00,-18.00,CLOSED,0
669528.133,0,0,0,1.000,1.000,1.000,-90.00,180.00,-18.00,CLOSED,0
669528.137,0,0,0,1.000,1.000,1.000,-90.00,180.00,-18.00,CLOSED,0
669528.140,0,0,0,1.000,1.000,1.000,-90.00,180.00,-18.00,CLOSED,0
669528.144,0,0,0,1.000,1.000,1.000,-90.00,180.00,-18.00,CLOSED,0
669528.148,0,0,0,1.000,1.000,1.000,-90.00,180.00,-18.00,CLOSED,0
669528.151,0,0,0,1.000,1.000,1.000,-90.00,180.00,-18.00,CLOSED,0
669528.155,0,0,0,1.000,1.000,1.000,-90.00,180.00,-18.00,CLOSED,0
669528.158,0,0,0,1.000,1.000,1.000,-90.00,180.00,-18.00,CLOSED,0
669528.162,0,0,0,1.000,1.000,1.000,-90.00,180.00,-18.00,CLOSED,0
669528.165,0,0,0,1.000,1.000,1.000,-90.00,180.00,-18.00,CLOSED,0
669528.169,0,0,0,1.000,1.000,1.000,-90.00,180.00,-18.00,CLOSED,0
669528.172,0,0,0,1.000,1.000,1.000,-90.00,180.00,-18.00,CLOSED,0
669528.176,0,0,0,1.000,1.000,1.000,-90.00,180.00,-18.00,CLOSED,0
669528.180,0,0,0,1.000,1.000,1.000,-90.00,180.00,-18.00,CLOSED,0
669528.183,0,0,0,1.000,1.000,1.000,-90.00,180.00,-18.00,CLOSED,0
669528.186,0,0,0,1.000,1.000,1.000,-90.00,180.00,-18.00,CLOSED,0
669528.190,0,0,0,1.000,1.000,1.000,-90.00,180.00,-18.00,CLOSED,0
669528.195,0,0,0,1.000,1.000,1.000,-90.00,180.00,-18.00,CLOSED,0
669528.199,0,0,0,1.000,1.000,1.000,-90.00,180.00,-18.00,CLOSED,0
669528.204,0,0,0,1.000,1.000,1.000,-90.00,180.00,-18.00,CLOSED,0
669528.208,0,0,0,1.000,1.000,1.000,-90.00,180.00,-18.00,CLOSED,0
669528.212,0,0,0,1.000,1.000,1.000,-90.00,180.00,-18.00,CLOSED,0
669528.217,0,0,0,1.000,1.000,1.000,-90.00,180.00,-18.00,CLOSED,0
669528.221,0,0,0,1.000,1.000,1.000,-90.00,180.00,-18.00,CLOSED,0
669528.225,0,0,0,1.000,1.000,1.000,-90.00,180.00,-18.00,CLOSED,0
669528.229,0,0,0,1.000,1.000,1.000,-90.00,180.00,-18.00,CLOSED,0
669528.233,0,0,0,1.000,1.000,1.000,-90.00,180.00,-18.00,CLOSED,0
669528.238,0,0,0,1.000,1.000,1.000,-90.00,180.00,-18.00,CLOSED,0
669528.242,0,0,0,1.000,1.000,1.000,-90.00,180.00,-18.00,CLOSED,0
669528.245,0,0,0,1.000,1.000,1.000,-90.00,180.00,-18.00,CLOSED,0
669528.249,0,0,0,1.000,1.000,1.000,-90.00,180.00,-18.00,CLOSED,0
669528.253,0,0,0,1.000,1.000,1.000,-90.00,180.00,-18.00,CLOSED,0
669528.256,0,0,0,1.000,1.000,1.000,-90.00,180.00,-18.00,CLOSED,0
669528.260,0,0,0,1.000,1.000,1.000,-90.00,180.00,-18.00,CLOSED,0
669528.264,0,0,0,1.000,1.000,1.000,-90.00,180.00,-18.00,CLOSED,0
669528.268,0,0,0,1.000,1.000,1.000,-90.00,180.00,-18.00,CLOSED,0
669528.272,0,0,0,1.000,1.000,1.000,-90.00,180.00,-18.00,CLOSED,0
669528.276,0,0,0,1.000,1.000,1.000,-90.00,180.00,-18.00,CLOSED,0
669528.280,0,0,0,1.000,1.000,1.000,-90.00,180.00,-18.00,CLOSED,0
669528.284,0,0,0,1.000,1.000,1.000,-90.00,180.00,-18.00,CLOSED,0
669528.288,0,0,0,1.000,1.000,1.000,-90.00,180.00,-18.00,CLOSED,0
669528.292,0,0,0,1.000,1.000,1.000,-90.00,180.00,-18.00,CLOSED,0
669528.296,0,0,0,1.000,1.000,1.000,-90.00,180.00,-18.00,CLOSED,0
669528.300,0,0,0,1.000,1.000,1.000,-90.00,180.00,-18.00,CLOSED,0
669528.303,0,0,0,1.000,1.000,1.000,-90.00,180.00,-18.00,CLOSED,0
669528.307,0,0,0,1.000,1.000,1.000,-90.00,180.00,-18.00,CLOSED,0
669528.311,0,0,0,1.000,1.000,1.000,-90.00,180.00,-18.00,CLOSED,0
669528.315,0,0,0,1.000,1.000,1.000,-90.00,180.00,-18.00,CLOSED,0
669528.318,0,0,0,1.000,1.000,1.000,-90.00,180.00,-18.00,CLOSED,0
669528.322,0,0,0,1.000,1.000,1.000,-90.00,180.00,-18.00,CLOSED,0
669528.325,0,0,0,1.000,1.000,1.000,-90.00,180.00,-18.00,CLOSED,0
669528.328,0,0,0,1.000,1.000,1.000,-90.00,180.00,-18.00,CLOSED,0
669528.332,0,0,0,1.000,1.000,1.000,-90.00,180.00,-18.00,CLOSED,0
669528.335,0,0,0,1.000,1.000,1.000,-90.00,180.00,-18.00,CLOSED,0
669528.339,0,0,0,1.000,1.000,1.000,-90.00,180.00,-18.00,CLOSED,0
669528.344,0,0,0,1.000,1.000,1.000,-90.00,180.00,-18.00,CLOSED,0
669528.350,0,0,0,1.000,1.000,1.000,-90.00,180.00,-18.00,CLOSED,0
669528.356,0,0,0,1.000,1.000,1.000,-90.00,180.00,-18.00,CLOSED,0
669528.361,0,0,0,1.000,1.000,1.000,-90.00,180.00,-18.00,CLOSED,0
669528.366,0,0,0,1.000,1.000,1.000,-90.00,180.00,-18.00,CLOSED,0
669528.370,0,0,0,1.000,1.000,1.000,-90.00,180.00,-18.00,CLOSED,0
669528.374,0,0,0,1.000,1.000,1.000,-90.00,180.00,-18.00,CLOSED,0
669528.378,0,0,0,1.000,1.000,1.000,-90.00,180.00,-18.00,CLOSED,0
669528.381,0,0,0,1.000,1.000,1.000,-90.00,180.00,-18.00,CLOSED,0
669528.385,0,0,0,1.000,1.000,1.000,-90.00,180.00,-18.00,CLOSED,0
669528.388,0,0,0,0.999,1.000,1.000,-90.00,180.00,-18.00,CLOSED,0
669528.392,0,0,0,0.992,1.000,1.000,-90.00,180.00,-18.00,CLOSED,0
669528.395,0,0,0,0.991,1.000,1.000,-90.00,180.00,-18.00,CLOSED,0
669528.399,0,0,0,0.997,1.000,1.000,-90.00,180.00,-18.00,CLOSED,0
669528.403,0,0,0,0.992,1.000,1.000,-90.00,180.00,-18.00,CLOSED,0
669528.407,0,0,0,0.989,1.000,1.000,-90.00,180.00,-18.00,CLOSED,0
669528.412,0,0,0,0.995,1.000,1.000,-90.00,180.00,-18.00,CLOSED,0
669528.417,0,0,0,0.987,1.000,1.000,-90.00,180.00,-18.00,CLOSED,0
669528.422,0,0,0,0.986,1.000,1.000,-90.00,180.00,-18.00,CLOSED,0
669528.427,0,0,0,0.989,1.000,1.000,-90.00,180.00,-18.00,CLOSED,0
669528.431,0,0,0,0.998,0.999,1.000,-90.00,180.00,-18.00,CLOSED,0
669528.434,0,0,0,0.999,0.950,1.000,-90.00,180.00,-18.00,CLOSED,0
669528.438,0,0,0,0.999,0.765,1.000,-90.00,180.00,-18.00,CLOSED,0
669528.442,0,0,0,0.995,0.989,1.000,-90.00,180.00,-18.00,CLOSED,0
669528.445,0,0,0,0.985,0.999,1.000,-90.00,180.00,-18.00,CLOSED,0
669528.449,0,0,0,0.989,1.000,1.000,-90.00,180.00,-18.00,CLOSED,0
669528.452,0,0,0,0.994,1.000,1.000,-90.00,180.00,-18.00,CLOSED,0
669528.456,0,0,0,0.997,1.000,1.000,-90.00,180.00,-18.00,CLOSED,0
669528.462,0,0,0,0.999,1.000,1.000,-90.00,180.00,-18.00,CLOSED,0
669528.469,0,0,0,0.999,1.000,1.000,-90.00,180.00,-18.00,CLOSED,0
669528.475,0,0,0,0.996,1.000,1.000,-90.00,180.00,-18.00,CLOSED,0
669528.480,0,0,0,0.999,1.000,1.000,-90.00,180.00,-18.00,CLOSED,0
669528.485,0,0,0,1.000,1.000,1.000,-90.00,180.00,-18.00,CLOSED,0
669528.490,0,0,0,1.000,1.000,1.000,-90.00,180.00,-18.00,CLOSED,0
669528.494,0,0,0,1.000,1.000,0.999,-90.00,180.00,-18.00,CLOSED,0
669528.497,0,0,0,1.000,1.000,0.998,-90.00,180.00,-18.00,CLOSED,0
669528.501,0,0,0,1.000,1.000,0.996,-90.00,180.00,-18.00,CLOSED,0
669528.505,0,0,0,1.000,1.000,0.994,-90.00,180.00,-18.00,CLOSED,0
669528.508,0,0,0,1.000,1.000,0.993,-90.00,180.00,-18.00,CLOSED,0
669528.512,0,0,0,1.000,1.000,0.992,-90.00,180.00,-18.00,CLOSED,0
669528.516,0,0,0,1.000,1.000,0.990,-90.00,180.00,-18.00,CLOSED,0
669528.519,0,0,0,1.000,1.000,0.988,-90.00,180.00,-18.00,CLOSED,0
669528.523,0,0,0,1.000,1.000,0.987,-90.00,180.00,-18.00,CLOSED,0
669528.527,0,0,0,1.000,1.000,0.986,-90.00,180.00,-18.00,CLOSED,0
669528.531,0,0,0,1.000,1.000,0.986,-90.00,180.00,-18.00,CLOSED,0
669528.534,0,0,0,1.000,1.000,0.989,-90.00,180.00,-18.00,CLOSED,0
669528.538,0,0,0,1.000,1.000,0.991,-90.00,180.00,-18.00,CLOSED,0
669528.542,0,0,0,1.000,1.000,0.993,-90.00,180.00,-18.00,CLOSED,0
669528.545,0,0,0,1.000,0.999,0.994,-90.00,180.00,-18.00,CLOSED,0
669528.549,0,0,0,1.000,0.999,0.994,-90.00,180.00,-18.00,CLOSED,0
669528.552,0,0,0,1.000,0.999,0.994,-90.00,180.00,-18.00,CLOSED,0
669528.556,0,0,0,1.000,0.999,0.994,-90.00,180.00,-18.00,CLOSED,0
669528.559,0,0,0,1.000,0.999,0.993,-90.00,180.00,-18.00,CLOSED,0
669528.563,0,0,0,1.000,0.999,0.993,-90.00,180.00,-18.00,CLOSED,0
669528.567,0,0,0,1.000,0.999,0.991,-90.00,180.00,-18.00,CLOSED,0
669528.570,0,0,0,1.000,0.999,0.989,-90.00,180.00,-18.00,CLOSED,0
669528.574,0,0,0,1.000,1.000,0.989,-90.00,180.00,-18.00,CLOSED,0
669528.578,0,0,0,1.000,1.000,0.988,-90.00,180.00,-18.00,CLOSED,0
669528.582,0,0,0,1.000,1.000,0.991,-90.00,180.00,-18.00,CLOSED,0
669528.586,0,0,0,1.000,1.000,0.995,-90.00,180.00,-18.00,CLOSED,0
669528.590,0,0,0,1.000,1.000,0.997,-90.00,180.00,-18.00,CLOSED,0
669528.594,0,0,0,1.000,1.000,0.998,-90.00,180.00,-18.00,CLOSED,0
669528.599,0,0,0,1.000,1.000,0.999,-90.00,180.00,-18.00,CLOSED,0
669528.602,0,0,0,1.000,1.000,0.999,-90.00,180.00,-18.00,CLOSED,0
669528.606,0,0,0,1.000,1.000,0.999,-90.00,180.00,-18.00,CLOSED,0
669528.611,0,0,0,1.000,1.000,0.999,-90.00,180.00,-18.00,CLOSED,0
669528.614,0,0,0,1.000,1.000,0.999,-90.00,180.00,-18.00,CLOSED,0
669528.618,0,0,0,1.000,1.000,0.998,-90.00,180.00,-18.00,CLOSED,0
669528.621,0,0,0,1.000,1.000,0.997,-90.00,180.00,-18.00,CLOSED,0
669528.625,0,0,0,1.000,1.000,0.994,-90.00,180.00,-18.00,CLOSED,0
669528.629,0,0,0,1.000,0.999,0.988,-90.00,180.00,-18.00,CLOSED,0
669528.632,0,0,0,1.000,0.999,0.982,-90.00,180.00,-18.00,CLOSED,0
669528.636,0,0,0,1.000,0.998,0.985,-90.00,180.00,-18.00,CLOSED,0
669528.640,0,0,0,1.000,0.997,0.991,-90.00,180.00,-18.00,CLOSED,0
669528.644,0,0,0,1.000,0.997,0.995,-90.00,180.00,-18.00,CLOSED,0
669528.647,0,0,0,1.000,0.996,0.997,-90.00,180.00,-18.00,CLOSED,0
669528.651,0,0,0,1.000,0.995,0.998,-90.00,180.00,-18.00,CLOSED,0
669528.655,0,0,0,1.000,0.996,0.999,-90.00,180.00,-18.00,CLOSED,0
669528.659,0,0,0,1.000,0.997,0.998,-90.00,180.00,-18.00,CLOSED,0
669528.663,0,0,0,1.000,0.997,0.998,-90.00,180.00,-18.00,CLOSED,0
669528.666,0,0,0,1.000,0.998,0.997,-90.00,180.00,-18.00,CLOSED,0
669528.670,0,0,0,1.000,0.998,0.994,-90.00,180.00,-18.00,CLOSED,0
669528.674,0,0,0,1.000,0.999,0.988,-90.00,180.00,-18.00,CLOSED,0
669528.677,0,0,0,1.000,0.999,0.979,-90.00,180.00,-18.00,CLOSED,0
669528.681,0,0,0,1.000,0.999,0.976,-90.00,180.00,-18.00,CLOSED,0
669528.685,0,0,0,1.000,0.999,0.981,-90.00,180.00,-18.00,CLOSED,0
669528.690,0,0,0,1.000,0.999,0.984,-90.00,180.00,-18.00,CLOSED,0
669528.694,0,0,0,1.000,0.998,0.988,-90.00,180.00,-18.00,CLOSED,0
669528.697,0,0,0,1.000,0.998,0.993,-90.00,180.00,-18.00,CLOSED,0
669528.701,0,0,0,1.000,0.998,0.995,-90.00,180.00,-18.00,CLOSED,0
669528.705,0,0,0,1.000,0.998,0.997,-90.00,180.00,-18.00,CLOSED,0
669528.709,0,0,0,1.000,0.999,0.998,-90.00,180.00,-18.00,CLOSED,0
669528.712,0,0,0,1.000,0.999,0.998,-90.00,180.00,-18.00,CLOSED,0
669528.716,0,0,0,1.000,0.999,0.999,-90.00,180.00,-18.00,CLOSED,0
669528.720,0,0,0,1.000,0.999,0.999,-90.00,180.00,-18.00,CLOSED,0
669528.723,0,0,0,1.000,1.000,0.999,-90.00,180.00,-18.00,CLOSED,0
669528.727,0,0,0,1.000,1.000,0.998,-90.00,180.00,-18.00,CLOSED,0
669528.730,0,0,0,1.000,1.000,0.998,-90.00,180.00,-18.00,CLOSED,0
669528.734,0,0,0,1.000,1.000,0.998,-90.00,180.00,-18.00,CLOSED,0
669528.738,0,0,0,1.000,1.000,0.999,-90.00,180.00,-18.00,CLOSED,0
669528.741,0,0,0,1.000,1.000,0.999,-90.00,180.00,-18.00,CLOSED,0
669528.745,0,0,0,1.000,1.000,1.000,-90.00,180.00,-18.00,CLOSED,0
669528.748,0,0,0,1.000,1.000,1.000,-90.00,180.00,-18.00,CLOSED,0
669528.752,0,0,0,1.000,1.000,1.000,-90.00,180.00,-18.00,CLOSED,0
669528.755,0,0,0,1.000,1.000,1.000,-90.00,180.00,-18.00,CLOSED,0
669528.759,0,0,0,1.000,1.000,1.000,-90.00,180.00,-18.00,CLOSED,0
669528.763,0,0,0,1.000,1.000,1.000,-90.00,180.00,-18.00,CLOSED,0
669528.766,0,0,0,1.000,1.000,1.000,-90.00,180.00,-18.00,CLOSED,0
669528.770,0,0,0,1.000,1.000,1.000,-90.00,180.00,-18.00,CLOSED,0
669528.774,0,0,0,1.000,1.000,1.000,-90.00,180.00,-18.00,CLOSED,0
669528.778,0,0,0,1.000,1.000,1.000,-90.00,180.00,-18.00,CLOSED,0
669528.781,0,0,0,1.000,1.000,0.999,-90.00,180.00,-18.00,CLOSED,0
669528.784,0,0,0,1.000,1.000,0.999,-90.00,180.00,-18.00,CLOSED,0
669528.788,0,0,0,1.000,1.000,0.999,-90.00,180.00,-18.00,CLOSED,0
669528.792,0,0,0,1.000,1.000,0.999,-90.00,180.00,-18.00,CLOSED,0
669528.795,0,0,0,1.000,1.000,0.999,-90.00,180.00,-18.00,CLOSED,0
669528.799,0,0,0,1.000,1.000,0.999,-90.00,180.00,-18.00,CLOSED,0
669528.802,0,0,0,1.000,1.000,0.999,-90.00,180.00,-18.00,CLOSED,0
669528.806,0,0,0,1.000,1.000,0.999,-90.00,180.00,-18.00,CLOSED,0
669528.809,0,0,0,1.000,1.000,0.999,-90.00,180.00,-18.00,CLOSED,0
669528.813,0,0,0,1.000,1.000,0.999,-90.00,180.00,-18.00,CLOSED,0
669528.816,0,0,0,1.000,1.000,0.998,-90.00,180.00,-18.00,CLOSED,0
669528.820,0,0,0,1.000,1.000,0.996,-90.00,180.00,-18.00,CLOSED,0
669528.823,0,0,0,1.000,0.999,0.992,-90.00,180.00,-18.00,CLOSED,0
669528.828,0,0,0,1.000,0.998,0.985,-90.00,180.00,-18.00,CLOSED,0
669528.831,0,0,0,1.000,0.988,0.978,-90.00,180.00,-18.00,CLOSED,0
669528.835,0,0,0,1.000,0.924,0.974,-90.00,180.00,-18.00,CLOSED,0
669528.838,0,0,0,1.000,0.623,0.976,-90.00,180.00,-18.00,CLOSED,0
669528.842,0,0,0,1.000,0.959,0.989,-90.00,180.00,-18.00,CLOSED,0
669528.846,0,0,0,1.000,0.995,0.995,-90.00,180.00,-18.00,CLOSED,0
669528.849,0,0,0,1.000,0.999,0.996,-90.00,180.00,-18.00,CLOSED,0
669528.853,0,0,0,1.000,1.000,0.998,-90.00,180.00,-18.00,CLOSED,0
669528.857,0,0,0,1.000,1.000,0.998,-90.00,180.00,-18.00,CLOSED,0
669528.861,0,0,0,1.000,1.000,0.999,-90.00,180.00,-18.00,CLOSED,0
669528.864,0,0,0,1.000,1.000,0.999,-90.00,180.00,-18.00,CLOSED,0
669528.868,0,0,0,1.000,1.000,0.999,-90.00,180.00,-18.00,CLOSED,0
669528.871,0,0,0,1.000,0.999,1.000,-90.00,180.00,-18.00,CLOSED,0
669528.875,0,0,0,1.000,0.999,1.000,-90.00,180.00,-18.00,CLOSED,0
669528.878,0,0,0,1.000,0.998,1.000,-90.00,180.00,-18.00,CLOSED,0
669528.883,0,0,0,1.000,0.996,1.000,-90.00,180.00,-18.00,CLOSED,0
669528.889,0,0,0,0.999,0.994,1.000,-90.00,180.00,-18.00,CLOSED,0
669528.895,0,0,0,0.999,0.986,1.000,-90.00,180.00,-18.00,CLOSED,0
669528.901,0,0,0,0.999,0.981,1.000,-90.00,180.00,-18.00,CLOSED,0
669528.907,0,0,0,0.999,0.985,1.000,-90.00,180.00,-18.00,CLOSED,0
669528.912,0,0,0,0.999,0.996,1.000,-90.00,180.00,-18.00,CLOSED,0
669528.917,0,0,0,0.997,0.996,1.000,-90.00,180.00,-18.00,CLOSED,0
669528.921,0,0,0,0.997,1.000,1.000,-90.00,180.00,-18.00,CLOSED,0
669528.925,0,0,0,0.994,1.000,1.000,-90.00,180.00,-18.00,CLOSED,0
669528.929,0,0,0,0.998,1.000,1.000,-90.00,180.00,-18.00,CLOSED,0
669528.932,0,0,0,0.999,1.000,1.000,-90.00,180.00,-18.00,CLOSED,0
669528.937,0,0,0,1.000,1.000,1.000,-90.00,180.00,-18.00,CLOSED,0
669528.940,0,0,0,1.000,1.000,1.000,-90.00,180.00,-18.00,CLOSED,0
669528.944,0,0,0,1.000,1.000,1.000,-90.00,180.00,-18.00,CLOSED,0
669528.948,0,0,0,1.000,1.000,1.000,-90.00,180.00,-18.00,CLOSED,0
669528.952,0,0,0,0.999,1.000,1.000,-90.00,180.00,-18.00,CLOSED,0
669528.958,0,0,0,1.000,1.000,1.000,-90.00,180.00,-18.00,CLOSED,0
669528.963,0,0,0,1.000,1.000,1.000,-90.00,180.00,-18.00,CLOSED,0
669528.967,0,0,0,1.000,1.000,1.000,-90.00,180.00,-18.00,CLOSED,0
669528.971,0,0,0,1.000,1.000,1.000,-90.00,180.00,-18.00,CLOSED,0
669528.975,0,0,0,1.000,1.000,1.000,-90.00,180.00,-18.00,CLOSED,0
669528.978,0,0,0,1.000,1.000,1.000,-90.00,180.00,-18.00,CLOSED,0
669528.982,0,0,0,1.000,1.000,1.000,-90.00,180.00,-18.00,CLOSED,0
669528.986,0,0,0,1.000,1.000,1.000,-90.00,180.00,-18.00,CLOSED,0
669528.990,0,0,0,1.000,1.000,1.000,-90.00,180.00,-18.00,CLOSED,0
669528.993,0,0,0,1.000,1.000,1.000,-90.00,180.00,-18.00,CLOSED,0
669528.997,0,0,0,1.000,1.000,1.000,-90.00,180.00,-18.00,CLOSED,0
669529.000,0,0,0,1.000,1.000,1.000,-90.00,180.00,-18.00,CLOSED,0
669529.003,0,0,0,1.000,1.000,1.000,-90.00,180.00,-18.00,CLOSED,0
669529.007,0,0,0,1.000,1.000,1.000,-90.00,180.00,-18.00,CLOSED,0
669529.011,0,0,0,1.000,1.000,1.000,-90.00,180.00,-18.00,CLOSED,0
669529.015,0,0,0,1.000,1.000,1.000,-90.00,180.00,-18.00,CLOSED,0
669529.019,0,0,0,1.000,1.000,1.000,-90.00,180.00,-18.00,CLOSED,0
669529.022,0,0,0,1.000,1.000,1.000,-90.00,180.00,-18.00,CLOSED,0
669529.027,0,0,0,1.000,1.000,1.000,-90.00,180.00,-18.00,CLOSED,0
669529.031,0,0,0,1.000,1.000,1.000,-90.00,180.00,-18.00,CLOSED,0
669529.035,0,0,0,1.000,1.000,1.000,-90.00,180.00,-18.00,CLOSED,0
669529.039,0,0,0,1.000,1.000,1.000,-90.00,180.00,-18.00,CLOSED,0
669529.043,0,0,0,1.000,1.000,1.000,-90.00,180.00,-18.00,CLOSED,0
669529.047,0,0,0,1.000,1.000,1.000,-90.00,180.00,-18.00,CLOSED,0
669529.050,0,0,0,1.000,1.000,1.000,-90.00,180.00,-18.00,CLOSED,0
669529.054,0,0,0,1.000,1.000,1.000,-90.00,180.00,-18.00,CLOSED,0
669529.057,0,0,0,1.000,1.000,1.000,-90.00,180.00,-18.00,CLOSED,0
669529.061,0,0,0,1.000,1.000,1.000,-90.00,180.00,-18.00,CLOSED,0
669529.065,0,0,0,1.000,1.000,1.000,-90.00,180.00,-18.00,CLOSED,0
669529.070,0,0,0,1.000,1.000,1.000,-90.00,180.00,-18.00,CLOSED,0
669529.075,0,0,0,1.000,1.000,1.000,-90.00,180.00,-18.00,CLOSED,0
669529.079,0,0,0,1.000,1.000,1.000,-90.00,180.00,-18.00,CLOSED,0
669529.083,0,0,0,1.000,1.000,1.000,-90.00,180.00,-18.00,CLOSED,0
669529.088,0,0,0,1.000,1.000,1.000,-90.00,180.00,-18.00,CLOSED,0
669529.092,0,0,0,1.000,1.000,1.000,-90.00,180.00,-18.00,CLOSED,0
669529.096,0,0,0,1.000,1.000,1.000,-90.00,180.00,-18.00,CLOSED,0
669529.099,0,0,0,1.000,1.000,1.000,-90.00,180.00,-18.00,CLOSED,0
669529.103,0,0,0,1.000,1.000,1.000,-90.00,180.00,-18.00,CLOSED,0
669529.107,0,0,0,1.000,1.000,1.000,-90.00,180.00,-18.00,CLOSED,0
669529.111,0,0,0,1.000,1.000,1.000,-90.00,180.00,-18.00,CLOSED,0
669529.114,0,0,0,1.000,1.000,1.000,-90.00,180.00,-18.00,CLOSED,0
669529.118,0,0,0,1.000,1.000,1.000,-90.00,180.00,-18.00,CLOSED,0
669529.122,0,0,0,1.000,1.000,1.000,-90.00,180.00,-18.00,CLOSED,0
669529.126,0,0,0,1.000,1.000,1.000,-90.00,180.00,-18.00,CLOSED,0
669529.129,0,0,0,1.000,1.000,1.000,-90.00,180.00,-18.00,CLOSED,0
669529.133,0,0,0,1.000,1.000,1.000,-90.00,180.00,-18.00,CLOSED,0
669529.136,0,0,0,1.000,1.000,1.000,-90.00,180.00,-18.00,CLOSED,0
669529.140,0,0,0,1.000,1.000,1.000,-90.00,180.00,-18.00,CLOSED,0
669529.143,0,0,0,1.000,1.000,1.000,-90.00,180.00,-18.00,CLOSED,0
669529.147,0,0,0,1.000,1.000,1.000,-90.00,180.00,-18.00,CLOSED,0
669529.150,0,0,0,1.000,1.000,1.000,-90.00,180.00,-18.00,CLOSED,0
669529.154,0,0,0,1.000,1.000,1.000,-90.00,180.00,-18.00,CLOSED,0
669529.157,0,0,0,1.000,1.000,1.000,-90.00,180.00,-18.00,CLOSED,0
669529.161,0,0,0,1.000,1.000,1.000,-90.00,180.00,-18.00,CLOSED,0
669529.165,0,0,0,1.000,1.000,1.000,-90.00,180.00,-18.00,CLOSED,0
669529.169,0,0,0,1.000,1.000,1.000,-90.00,180.00,-18.00,CLOSED,0
669529.173,0,0,0,1.000,1.000,1.000,-90.00,180.00,-18.00,CLOSED,0
669529.177,0,0,0,1.000,1.000,1.000,-90.00,180.00,-18.00,CLOSED,0
669529.181,0,0,0,1.000,1.000,1.000,-90.00,180.00,-18.00,CLOSED,0
669529.185,0,0,0,1.000,1.000,1.000,-90.00,180.00,-18.00,CLOSED,0
669529.189,0,0,0,1.000,1.000,1.000,-90.00,180.00,-18.00,CLOSED,0
669529.192,0,0,0,1.000,1.000,1.000,-90.00,180.00,-18.00,CLOSED,0
669529.196,0,0,0,1.000,1.000,1.000,-90.00,180.00,-18.00,CLOSED,0
669529.199,0,0,0,1.000,1.000,1.000,-90.00,180.00,-18.00,CLOSED,0
669529.203,0,0,0,1.000,1.000,1.000,-90.00,180.00,-18.00,CLOSED,0
669529.207,0,0,0,1.000,1.000,1.000,-90.00,180.00,-18.00,CLOSED,0
669529.210,0,0,0,1.000,1.000,1.000,-90.00,180.00,-18.00,CLOSED,0
669529.214,0,0,0,1.000,1.000,1.000,-90.00,180.00,-18.00,CLOSED,0
669529.217,0,0,0,1.000,1.000,1.000,-90.00,180.00,-18.00,CLOSED,0
669529.221,0,0,0,1.000,1.000,1.000,-90.00,180.00,-18.00,CLOSED,0
669529.225,0,0,0,1.000,1.000,1.000,-90.00,180.00,-18.00,CLOSED,0
669529.229,0,0,0,1.000,1.000,1.000,-90.00,180.00,-18.00,CLOSED,0
669529.233,0,0,0,1.000,1.000,1.000,-90.00,180.00,-18.00,CLOSED,0
669529.237,0,0,0,1.000,1.000,1.000,-90.00,180.00,-18.00,CLOSED,0
669529.240,0,0,0,1.000,1.000,1.000,-90.00,180.00,-18.00,CLOSED,0
669529.244,0,0,0,1.000,1.000,1.000,-90.00,180.00,-18.00,CLOSED,0
669529.248,0,0,0,1.000,1.000,1.000,-90.00,180.00,-18.00,CLOSED,0
669529.251,0,0,0,1.000,1.000,1.000,-90.00,180.00,-18.00,CLOSED,0
669529.255,0,0,0,1.000,1.000,1.000,-90.00,180.00,-18.00,CLOSED,0
669529.258,0,0,0,1.000,1.000,1.000,-90.00,180.00,-18.00,CLOSED,0
669529.262,0,0,0,1.000,1.000,1.000,-90.00,180.00,-18.00,CLOSED,0
669529.266,0,0,0,1.000,1.000,1.000,-90.00,180.00,-18.00,CLOSED,0
669529.270,0,0,0,1.000,1.000,1.000,-90.00,180.00,-18.00,CLOSED,0
669529.274,0,0,0,1.000,1.000,1.000,-90.00,180.00,-18.00,CLOSED,0
669529.278,0,0,0,1.000,1.000,1.000,-90.00,180.00,-18.00,CLOSED,0
669529.282,0,0,0,1.000,1.000,1.000,-90.00,180.00,-18.00,CLOSED,0
669529.286,0,0,0,1.000,1.000,1.000,-90.00,180.00,-18.00,CLOSED,0
669529.289,0,0,0,1.000,1.000,1.000,-90.00,180.00,-18.00,CLOSED,0
669529.293,0,0,0,1.000,1.000,1.000,-90.00,180.00,-18.00,CLOSED,0
669529.297,0,0,0,1.000,1.000,1.000,-90.00,180.00,-18.00,CLOSED,0
669529.301,0,0,0,1.000,1.000,1.000,-90.00,180.00,-18.00,CLOSED,0
669529.304,0,0,0,1.000,1.000,1.000,-90.00,180.00,-18.00,CLOSED,0
669529.308,0,0,0,1.000,1.000,1.000,-90.00,180.00,-18.00,CLOSED,0
669529.312,0,0,0,1.000,1.000,1.000,-90.00,180.00,-18.00,CLOSED,0
669529.315,0,0,0,1.000,1.000,1.000,-90.00,180.00,-18.00,CLOSED,0
669529.319,0,0,0,1.000,1.000,1.000,-90.00,180.00,-18.00,CLOSED,0
669529.322,0,0,0,1.000,1.000,1.000,-90.00,180.00,-18.00,CLOSED,0
669529.326,0,0,0,1.000,1.000,1.000,-90.00,180.00,-18.00,CLOSED,0
669529.329,0,0,0,1.000,1.000,1.000,-90.00,180.00,-18.00,CLOSED,0
669529.333,0,0,0,1.000,1.000,1.000,-90.00,180.00,-18.00,CLOSED,0
669529.336,0,0,0,1.000,1.000,1.000,-90.00,180.00,-18.00,CLOSED,0
669529.339,0,0,0,1.000,1.000,1.000,-90.00,180.00,-18.00,CLOSED,0
669529.343,0,0,0,1.000,1.000,1.000,-90.00,180.00,-18.00,CLOSED,0
669529.347,0,0,0,1.000,1.000,1.000,-90.00,180.00,-18.00,CLOSED,0
669529.351,0,0,0,1.000,1.000,1.000,-90.00,180.00,-18.00,CLOSED,0
669529.354,0,0,0,1.000,1.000,1.000,-90.00,180.00,-18.00,CLOSED,0
669529.358,0,0,0,1.000,1.000,1.000,-90.00,180.00,-18.00,CLOSED,0
669529.362,0,0,0,1.000,1.000,1.000,-90.00,180.00,-18.00,CLOSED,0
669529.366,0,0,0,1.000,1.000,1.000,-90.00,180.00,-18.00,CLOSED,0
669529.371,0,0,0,1.000,1.000,1.000,-90.00,180.00,-18.00,CLOSED,0
669529.376,0,0,0,1.000,1.000,1.000,-90.00,180.00,-18.00,CLOSED,0
669529.380,0,0,0,1.000,1.000,1.000,-90.00,180.00,-18.00,CLOSED,0
669529.384,0,0,0,1.000,1.000,1.000,-90.00,180.00,-18.00,CLOSED,0
669529.389,0,0,0,1.000,1.000,1.000,-90.00,180.00,-18.00,CLOSED,0
669529.393,0,0,0,1.000,1.000,1.000,-90.00,180.00,-18.00,CLOSED,0
669529.396,0,0,0,1.000,1.000,1.000,-90.00,180.00,-18.00,CLOSED,0
669529.400,0,0,0,1.000,1.000,1.000,-90.00,180.00,-18.00,CLOSED,0
669529.405,0,0,0,1.000,1.000,1.000,-90.00,180.00,-18.00,CLOSED,0
669529.408,0,0,0,1.000,1.000,1.000,-90.00,180.00,-18.00,CLOSED,0
669529.411,0,0,0,0.999,1.000,1.000,-90.00,180.00,-18.00,CLOSED,0
669529.415,0,0,0,0.858,1.000,1.000,-90.00,180.00,-18.00,CLOSED,0
669529.418,0,0,0,0.484,1.000,1.000,-90.00,180.00,-18.00,CLOSED,0
669529.423,0,0,0,0.481,1.000,1.000,-90.00,180.00,-18.00,CLOSED,0
669529.427,0,0,0,0.604,1.000,1.000,-90.00,180.00,-18.00,CLOSED,0
669529.431,0,0,0,0.670,1.000,1.000,-90.00,180.00,-18.00,CLOSED,0
669529.434,0,0,0,0.776,1.000,1.000,-90.00,180.00,-18.00,CLOSED,0
669529.438,0,0,0,0.937,1.000,1.000,-90.00,180.00,-18.00,CLOSED,0
669529.442,0,0,0,0.997,1.000,1.000,-90.00,180.00,-18.00,CLOSED,0
669529.447,0,0,0,1.000,1.000,1.000,-90.00,180.00,-18.00,CLOSED,0
669529.452,0,0,0,1.000,1.000,1.000,-90.00,180.00,-18.00,CLOSED,0
669529.457,0,0,0,1.000,1.000,1.000,-90.00,180.00,-18.00,CLOSED,0
669529.462,3,0,0,1.000,1.000,1.000,-90.00,180.00,-18.00,OPEN,0
669529.467,3,0,0,1.000,1.000,1.000,-90.00,180.00,-18.00,OPEN,0
669529.472,3,0,0,1.000,1.000,1.000,-90.00,180.00,-18.00,OPEN,0
669529.476,3,0,0,1.000,1.000,1.000,-90.00,180.00,-18.00,OPEN,0
669529.480,3,0,0,1.000,1.000,1.000,-90.00,180.00,-18.00,OPEN,0
669529.483,3,0,0,1.000,1.000,1.000,-90.00,180.00,-18.00,OPEN,0
669529.487,3,0,0,1.000,1.000,1.000,-90.00,180.00,-18.00,OPEN,0
669529.490,3,0,0,1.000,1.000,1.000,-90.00,180.00,-18.00,OPEN,0
669529.494,3,0,0,1.000,1.000,1.000,-90.00,180.00,-18.00,OPEN,0
669529.497,3,0,0,1.000,1.000,1.000,-90.00,180.00,-18.00,OPEN,0
669529.501,3,0,0,1.000,1.000,1.000,-90.00,180.00,-18.00,OPEN,0
669529.504,3,0,0,1.000,1.000,1.000,-90.00,180.00,-18.00,OPEN,0
669529.508,3,0,0,1.000,1.000,1.000,-90.00,180.00,-18.00,OPEN,0
669529.511,3,0,0,1.000,1.000,1.000,-90.00,180.00,-18.00,OPEN,0
669529.515,3,0,0,1.000,1.000,1.000,-90.00,180.00,-18.00,OPEN,0
669529.519,3,0,0,1.000,1.000,1.000,-90.00,180.00,-18.00,OPEN,0
669529.523,3,0,0,1.000,1.000,1.000,-90.00,180.00,-18.00,OPEN,0
669529.526,3,0,0,1.000,1.000,1.000,-90.00,180.00,-18.00,OPEN,0
669529.530,3,0,0,1.000,1.000,1.000,-90.00,180.00,-18.00,OPEN,0
669529.533,3,0,0,1.000,1.000,1.000,-90.00,180.00,-18.00,OPEN,0
669529.537,3,0,0,1.000,1.000,1.000,-90.00,180.00,-18.00,OPEN,0
669529.540,3,0,0,1.000,1.000,1.000,-90.00,180.00,-18.00,OPEN,0
669529.544,3,0,0,1.000,1.000,1.000,-90.00,180.00,-18.00,OPEN,0
669529.548,3,0,0,1.000,1.000,1.000,-90.00,180.00,-18.00,OPEN,0
669529.551,3,0,0,1.000,1.000,1.000,-90.00,180.00,-18.00,OPEN,0
669529.555,3,0,0,1.000,1.000,1.000,-90.00,180.00,-18.00,OPEN,0
669529.558,3,0,0,1.000,1.000,1.000,-90.00,180.00,-18.00,OPEN,0
669529.562,3,0,0,1.000,1.000,1.000,-90.00,180.00,-18.00,OPEN,0
669529.566,3,0,0,1.000,1.000,1.000,-90.00,180.00,-18.00,OPEN,0
669529.569,3,0,0,1.000,1.000,1.000,-90.00,180.00,-18.00,OPEN,0
669529.573,3,0,0,1.000,1.000,1.000,-90.00,180.00,-18.00,OPEN,0
669529.577,3,0,0,1.000,1.000,1.000,-90.00,180.00,-18.00,OPEN,0
669529.581,3,0,0,1.000,1.000,1.000,-90.00,180.00,-18.00,OPEN,0
669529.585,3,0,0,1.000,1.000,1.000,-90.00,180.00,-18.00,OPEN,0
669529.588,3,0,0,1.000,1.000,1.000,-90.00,180.00,-18.00,OPEN,0
669529.592,3,0,0,1.000,1.000,1.000,-90.00,180.00,-18.00,OPEN,0
669529.596,3,0,0,1.000,1.000,1.000,-90.00,180.00,-18.00,OPEN,0
669529.600,3,0,0,1.000,1.000,1.000,-90.00,180.00,-18.00,OPEN,0
669529.603,3,0,0,1.000,1.000,1.000,-90.00,180.00,-18.00,OPEN,0
669529.607,3,0,0,1.000,1.000,1.000,-90.00,180.00,-18.00,OPEN,0
669529.611,3,0,0,1.000,1.000,1.000,-90.00,180.00,-18.00,OPEN,0
669529.615,3,0,0,1.000,1.000,1.000,-90.00,180.00,-18.00,OPEN,0
669529.618,3,0,0,1.000,1.000,1.000,-90.00,180.00,-18.00,OPEN,0
669529.622,3,0,0,1.000,1.000,1.000,-90.00,180.00,-18.00,OPEN,0
669529.626,3,0,0,1.000,1.000,1.000,-90.00,180.00,-18.00,OPEN,0
669529.629,3,0,0,1.000,1.000,1.000,-90.00,180.00,-18.00,OPEN,0
669529.633,3,0,0,1.000,1.000,1.000,-90.00,180.00,-18.00,OPEN,0
669529.636,3,0,0,1.000,1.000,1.000,-90.00,180.00,-18.00,OPEN,0
669529.641,3,0,0,1.000,1.000,1.000,-90.00,180.00,-18.00,OPEN,0
669529.644,3,0,0,1.000,1.000,1.000,-90.00,180.00,-18.00,OPEN,0
669529.648,3,0,0,1.000,1.000,1.000,-90.00,180.00,-18.00,OPEN,0
669529.651,3,0,0,1.000,1.000,1.000,-90.00,180.00,-18.00,OPEN,0
669529.655,3,0,0,1.000,1.000,1.000,-90.00,180.00,-18.00,OPEN,0
669529.658,3,0,0,1.000,1.000,1.000,-90.00,180.00,-18.00,OPEN,0
669529.662,3,0,0,1.000,1.000,1.000,-90.00,180.00,-18.00,OPEN,0
669529.667,3,0,0,1.000,1.000,1.000,-90.00,180.00,-18.00,OPEN,0
669529.672,3,0,0,1.000,1.000,1.000,-90.00,180.00,-18.00,OPEN,0
669529.676,3,0,0,1.000,1.000,1.000,-90.00,180.00,-18.00,OPEN,0
669529.680,3,0,0,1.000,1.000,1.000,-90.00,180.00,-18.00,OPEN,0
669529.684,3,0,0,1.000,1.000,1.000,-90.00,180.00,-18.00,OPEN,0
669529.688,3,0,0,1.000,1.000,1.000,-90.00,180.00,-18.00,OPEN,0
669529.691,3,0,0,1.000,1.000,1.000,-90.00,180.00,-18.00,OPEN,0
669529.695,3,0,0,1.000,1.000,1.000,-90.00,180.00,-18.00,OPEN,0
669529.698,3,0,0,1.000,1.000,1.000,-90.00,180.00,-18.00,OPEN,0
669529.702,3,0,0,1.000,1.000,1.000,-90.00,180.00,-18.00,OPEN,0
669529.706,3,0,0,1.000,1.000,1.000,-90.00,180.00,-18.00,OPEN,0
669529.710,3,0,0,1.000,1.000,1.000,-90.00,180.00,-18.00,OPEN,0
669529.714,3,0,0,1.000,1.000,1.000,-90.00,180.00,-18.00,OPEN,0
669529.718,3,0,0,1.000,1.000,1.000,-90.00,180.00,-18.00,OPEN,0
669529.723,3,0,0,1.000,1.000,1.000,-90.00,180.00,-18.00,OPEN,0
669529.726,3,0,0,1.000,1.000,1.000,-90.00,180.00,-18.00,OPEN,0
669529.730,3,0,0,1.000,1.000,1.000,-90.00,180.00,-18.00,OPEN,0
669529.734,3,0,0,1.000,1.000,1.000,-90.00,180.00,-18.00,OPEN,0
669529.737,3,0,0,1.000,1.000,1.000,-90.00,180.00,-18.00,OPEN,0
669529.741,3,0,0,1.000,1.000,1.000,-90.00,180.00,-18.00,OPEN,0
669529.744,3,0,0,1.000,1.000,1.000,-90.00,180.00,-18.00,OPEN,0
669529.748,3,0,0,1.000,1.000,1.000,-90.00,180.00,-18.00,OPEN,0
669529.752,3,0,0,1.000,1.000,1.000,-90.00,180.00,-18.00,OPEN,0
669529.756,3,0,0,1.000,1.000,1.000,-90.00,180.00,-18.00,OPEN,0
669529.760,3,0,0,1.000,1.000,1.000,-90.00,180.00,-18.00,OPEN,0
669529.764,3,0,0,1.000,1.000,1.000,-90.00,180.00,-18.00,OPEN,0
669529.768,3,0,0,1.000,1.000,1.000,-90.00,180.00,-18.00,OPEN,0
669529.772,3,0,0,1.000,1.000,1.000,-90.00,180.00,-18.00,OPEN,0
669529.776,3,0,0,1.000,1.000,1.000,-90.00,180.00,-18.00,OPEN,0
669529.780,3,0,0,1.000,1.000,1.000,-90.00,180.00,-18.00,OPEN,0
669529.783,3,0,0,1.000,1.000,1.000,-90.00,180.00,-18.00,OPEN,0
669529.787,3,0,0,1.000,1.000,1.000,-90.00,180.00,-18.00,OPEN,0
669529.791,3,0,0,1.000,1.000,1.000,-90.00,180.00,-18.00,OPEN,0
669529.795,3,0,0,1.000,1.000,1.000,-90.00,180.00,-18.00,OPEN,0
669529.798,3,0,0,1.000,1.000,1.000,-90.00,180.00,-18.00,OPEN,0
669529.802,3,0,0,1.000,1.000,1.000,-90.00,180.00,-18.00,OPEN,0
669529.806,3,0,0,1.000,1.000,1.000,-90.00,180.00,-18.00,OPEN,0
669529.809,3,0,0,1.000,1.000,1.000,-90.00,180.00,-18.00,OPEN,0
669529.813,3,0,0,1.000,1.000,1.000,-90.00,180.00,-18.00,OPEN,0
669529.817,3,0,0,1.000,1.000,1.000,-90.00,180.00,-18.00,OPEN,0
669529.821,3,0,0,1.000,1.000,1.000,-90.00,180.00,-18.00,OPEN,0
669529.824,3,0,0,1.000,1.000,1.000,-90.00,180.00,-18.00,OPEN,0
669529.828,3,0,0,1.000,1.000,1.000,-90.00,180.00,-18.00,OPEN,0
669529.832,3,0,0,1.000,1.000,1.000,-90.00,180.00,-18.00,OPEN,0
669529.836,3,0,0,1.000,1.000,1.000,-90.00,180.00,-18.00,OPEN,0
669529.839,3,0,0,1.000,1.000,1.000,-90.00,180.00,-18.00,OPEN,0
669529.844,3,0,0,1.000,1.000,1.000,-90.00,180.00,-18.00,OPEN,0
669529.847,3,0,0,1.000,1.000,1.000,-90.00,180.00,-18.00,OPEN,0
669529.851,3,0,0,1.000,1.000,1.000,-90.00,180.00,-18.00,OPEN,0
669529.854,3,0,0,1.000,1.000,1.000,-90.00,180.00,-18.00,OPEN,0
669529.858,3,0,0,1.000,1.000,1.000,-90.00,180.00,-18.00,OPEN,0
669529.862,3,0,0,1.000,1.000,1.000,-90.00,180.00,-18.00,OPEN,0
669529.865,3,0,0,0.999,1.000,1.000,-90.00,180.00,-18.00,OPEN,0
669529.869,3,0,0,0.975,1.000,1.000,-90.00,180.00,-18.00,OPEN,0
669529.873,3,0,0,0.869,1.000,1.000,-90.00,180.00,-18.00,OPEN,0
669529.876,3,0,0,0.666,1.000,1.000,-90.00,180.00,-18.00,OPEN,0
669529.880,3,0,0,0.511,1.000,1.000,-90.00,180.00,-18.00,OPEN,0
669529.884,3,0,0,0.589,1.000,1.000,-90.00,180.00,-18.00,OPEN,0
669529.887,3,0,0,0.639,1.000,1.000,-90.00,180.00,-18.00,OPEN,0
669529.891,3,0,0,0.562,1.000,1.000,-90.00,180.00,-18.00,OPEN,0
669529.894,3,0,0,0.920,1.000,1.000,-90.00,180.00,-18.00,OPEN,0
669529.898,3,0,0,1.000,1.000,1.000,-90.00,180.00,-18.00,OPEN,0
669529.902,3,0,0,1.000,1.000,1.000,-90.00,180.00,-18.00,OPEN,0
669529.906,3,0,0,1.000,1.000,1.000,-90.00,180.00,-18.00,OPEN,0
669529.911,3,0,0,1.000,1.000,1.000,-90.00,180.00,-18.00,OPEN,0
669529.915,3,0,0,1.000,1.000,1.000,-90.00,180.00,-18.00,OPEN,0
669529.919,3,0,0,1.000,1.000,1.000,-90.00,180.00,-18.00,OPEN,0
669529.923,0,0,0,1.000,1.000,1.000,-90.00,180.00,-18.00,OPEN,0
669529.927,0,0,0,1.000,1.000,1.000,-90.00,180.00,-18.00,OPEN,0
669529.931,0,0,0,1.000,1.000,1.000,-90.00,180.00,-18.00,OPEN,0
669529.935,0,0,0,1.000,1.000,1.000,-90.00,180.00,-18.00,OPEN,0
669529.939,0,0,0,1.000,1.000,1.000,-90.00,180.00,-18.00,OPEN,0
669529.943,0,0,0,1.000,1.000,1.000,-90.00,180.00,-18.00,OPEN,0
669529.947,0,0,0,1.000,1.000,1.000,-90.00,180.00,-18.00,OPEN,0
669529.950,0,0,0,1.000,1.000,1.000,-90.00,180.00,-18.00,OPEN,0
669529.955,0,0,0,1.000,1.000,1.000,-90.00,180.00,-18.00,OPEN,0
669529.958,0,0,0,1.000,1.000,1.000,-90.00,180.00,-18.00,OPEN,0
669529.962,0,0,0,1.000,1.000,1.000,-90.00,180.00,-18.00,OPEN,0
669529.965,0,0,0,1.000,1.000,1.000,-90.00,180.00,-18.00,OPEN,0
669529.969,0,0,0,1.000,1.000,1.000,-90.00,180.00,-18.00,OPEN,0
669529.973,0,0,0,1.000,1.000,1.000,-90.00,180.00,-18.00,OPEN,0
669529.977,0,0,0,1.000,1.000,1.000,-90.00,180.00,-18.00,OPEN,0
669529.981,0,0,0,1.000,1.000,1.000,-90.00,180.00,-18.00,OPEN,0
669529.987,0,0,0,1.000,1.000,1.000,-90.00,180.00,-18.00,OPEN,0
669529.993,0,0,0,1.000,1.000,1.000,-90.00,180.00,-18.00,OPEN,0
669529.998,0,0,0,1.000,1.000,1.000,-90.00,180.00,-18.00,OPEN,0
669530.003,0,0,0,1.000,1.000,1.000,-90.00,180.00,-18.00,OPEN,0
669530.008,0,0,0,0.999,1.000,1.000,-90.00,180.00,-18.00,OPEN,0
669530.012,0,0,0,1.000,1.000,1.000,-90.00,180.00,-18.00,OPEN,0
669530.015,0,0,0,1.000,1.000,1.000,-90.00,180.00,-18.00,OPEN,0
669530.019,0,0,0,1.000,1.000,1.000,-90.00,180.00,-18.00,OPEN,0
669530.022,0,0,0,1.000,1.000,1.000,-90.00,180.00,-18.00,OPEN,0
669530.026,0,0,0,1.000,1.000,1.000,-90.00,180.00,-18.00,OPEN,0
669530.029,0,0,0,1.000,1.000,1.000,-90.00,180.00,-18.00,OPEN,0
669530.033,0,0,0,1.000,1.000,1.000,-90.00,180.00,-18.00,OPEN,0
669530.036,0,0,0,1.000,1.000,1.000,-90.00,180.00,-18.00,OPEN,0
669530.039,0,0,0,1.000,1.000,1.000,-90.00,180.00,-18.00,OPEN,0
669530.043,0,0,0,1.000,1.000,1.000,-90.00,180.00,-18.00,OPEN,0
669530.047,0,0,0,1.000,1.000,1.000,-90.00,180.00,-18.00,OPEN,0
669530.050,0,0,0,1.000,1.000,1.000,-90.00,180.00,-18.00,OPEN,0
669530.054,0,0,0,1.000,1.000,1.000,-90.00,180.00,-18.00,OPEN,0
669530.058,0,0,0,1.000,1.000,1.000,-90.00,180.00,-18.00,OPEN,0
669530.063,0,0,0,1.000,1.000,1.000,-90.00,180.00,-18.00,OPEN,0
669530.067,0,0,0,1.000,1.000,1.000,-90.00,180.00,-18.00,OPEN,0
669530.071,0,0,0,1.000,1.000,1.000,-90.00,180.00,-18.00,OPEN,0
669530.075,0,0,0,1.000,1.000,1.000,-90.00,180.00,-18.00,OPEN,0
669530.078,0,0,0,1.000,1.000,1.000,-90.00,180.00,-18.00,OPEN,0
669530.082,0,0,0,1.000,1.000,1.000,-90.00,180.00,-18.00,OPEN,0
669530.086,0,0,0,1.000,1.000,1.000,-90.00,180.00,-18.00,OPEN,0
669530.090,0,0,0,1.000,1.000,1.000,-90.00,180.00,-18.00,OPEN,0
669530.094,0,0,0,1.000,1.000,1.000,-90.00,180.00,-18.00,OPEN,0
669530.098,0,0,0,1.000,1.000,1.000,-90.00,180.00,-18.00,OPEN,0
669530.102,0,0,0,1.000,1.000,1.000,-90.00,180.00,-18.00,OPEN,0
669530.105,0,0,0,1.000,1.000,1.000,-90.00,180.00,-18.00,OPEN,0
669530.109,0,0,0,1.000,1.000,1.000,-90.00,180.00,-18.00,OPEN,0
669530.112,0,0,0,1.000,1.000,1.000,-90.00,180.00,-18.00,OPEN,0
669530.116,0,0,0,1.000,1.000,1.000,-90.00,180.00,-18.00,OPEN,0
669530.120,0,0,0,1.000,1.000,1.000,-90.00,180.00,-18.00,OPEN,0
669530.125,0,0,0,1.000,1.000,1.000,-90.00,180.00,-18.00,OPEN,0
669530.129,0,0,0,1.000,1.000,1.000,-90.00,180.00,-18.00,OPEN,0
669530.133,0,0,0,1.000,1.000,1.000,-90.00,180.00,-18.00,OPEN,0
669530.138,0,0,0,1.000,1.000,1.000,-90.00,180.00,-18.00,OPEN,0
669530.142,0,0,0,1.000,1.000,1.000,-90.00,180.00,-18.00,OPEN,0
669530.146,0,0,0,1.000,1.000,1.000,-90.00,180.00,-18.00,OPEN,0
669530.150,0,0,0,1.000,1.000,1.000,-90.00,180.00,-18.00,OPEN,0
669530.153,0,0,0,1.000,1.000,1.000,-90.00,180.00,-18.00,OPEN,0
669530.157,0,0,0,1.000,1.000,1.000,-90.00,180.00,-18.00,OPEN,0
669530.160,0,0,0,1.000,1.000,1.000,-90.00,180.00,-18.00,OPEN,0
669530.164,0,0,0,1.000,1.000,1.000,-90.00,180.00,-18.00,OPEN,0
669530.167,0,0,0,1.000,1.000,1.000,-90.00,180.00,-18.00,OPEN,0
669530.171,0,0,0,1.000,1.000,1.000,-90.00,180.00,-18.00,OPEN,0
669530.174,0,0,0,1.000,1.000,1.000,-90.00,180.00,-18.00,OPEN,0
669530.178,0,0,0,1.000,1.000,1.000,-90.00,180.00,-18.00,OPEN,0
669530.181,0,0,0,1.000,1.000,1.000,-90.00,180.00,-18.00,OPEN,0
669530.185,0,0,0,1.000,1.000,1.000,-90.00,180.00,-18.00,OPEN,0
669530.189,0,0,0,1.000,1.000,1.000,-90.00,180.00,-18.00,OPEN,0
669530.192,0,0,0,1.000,1.000,1.000,-90.00,180.00,-18.00,OPEN,0
669530.196,0,0,0,1.000,1.000,1.000,-90.00,180.00,-18.00,OPEN,0
669530.200,0,0,0,1.000,1.000,1.000,-90.00,180.00,-18.00,OPEN,0
669530.204,0,0,0,1.000,1.000,1.000,-90.00,180.00,-18.00,OPEN,0
669530.207,0,0,0,1.000,1.000,1.000,-90.00,180.00,-18.00,OPEN,0
669530.211,0,0,0,1.000,1.000,1.000,-90.00,180.00,-18.00,OPEN,0
669530.214,0,0,0,1.000,1.000,1.000,-90.00,180.00,-18.00,OPEN,0
669530.217,0,0,0,1.000,1.000,1.000,-90.00,180.00,-18.00,OPEN,0
669530.221,0,0,0,1.000,1.000,1.000,-90.00,180.00,-18.00,OPEN,0
669530.224,0,0,0,1.000,1.000,1.000,-90.00,180.00,-18.00,OPEN,0
669530.228,0,0,0,1.000,1.000,1.000,-90.00,180.00,-18.00,OPEN,0
669530.232,0,0,0,1.000,1.000,1.000,-90.00,180.00,-18.00,OPEN,0
669530.235,0,0,0,1.000,1.000,1.000,-90.00,180.00,-18.00,OPEN,0
669530.239,0,0,0,1.000,1.000,1.000,-90.00,180.00,-18.00,OPEN,0
669530.243,0,0,0,1.000,1.000,1.000,-90.00,180.00,-18.00,OPEN,0
669530.247,0,0,0,1.000,1.000,1.000,-90.00,180.00,-18.00,OPEN,0
669530.251,0,0,0,1.000,1.000,1.000,-90.00,180.00,-18.00,OPEN,0
669530.255,0,0,0,1.000,1.000,1.000,-90.00,180.00,-18.00,OPEN,0
669530.259,0,0,0,1.000,1.000,1.000,-90.00,180.00,-18.00,OPEN,0
669530.263,0,0,0,1.000,1.000,1.000,-90.00,180.00,-18.00,OPEN,0
669530.266,0,0,0,1.000,1.000,1.000,-90.00,180.00,-18.00,OPEN,0
669530.269,0,0,0,1.000,1.000,1.000,-90.00,180.00,-18.00,OPEN,0
669530.273,0,0,0,1.000,1.000,1.000,-90.00,180.00,-18.00,OPEN,0
669530.277,0,0,0,1.000,1.000,1.000,-90.00,180.00,-18.00,OPEN,0
669530.280,0,0,0,1.000,1.000,1.000,-90.00,180.00,-18.00,OPEN,0
669530.284,0,0,0,1.000,1.000,1.000,-90.00,180.00,-18.00,OPEN,0
669530.288,0,0,0,1.000,1.000,1.000,-90.00,180.00,-18.00,OPEN,0
669530.291,0,0,0,1.000,1.000,1.000,-90.00,180.00,-18.00,OPEN,0
669530.295,0,0,0,1.000,1.000,1.000,-90.00,180.00,-18.00,OPEN,0
669530.299,0,0,0,1.000,1.000,1.000,-90.00,180.00,-18.00,OPEN,0
