t,hand,elbow,shoulder,p_hand,p_elbow,p_shoulder,J2,J3,J6,grip_state,cmd_sent
672339.695,0,0,0,0.805,1.000,1.000,-90.00,180.00,0.00,OPEN,0
672339.711,0,0,0,0.711,1.000,1.000,-90.00,180.00,0.00,OPEN,0
672339.715,0,0,0,0.996,1.000,1.000,-90.00,180.00,0.00,OPEN,0
672339.719,0,0,0,1.000,1.000,1.000,-90.00,180.00,0.00,OPEN,0
672339.722,0,0,0,1.000,1.000,1.000,-90.00,180.00,0.00,OPEN,0
672339.726,0,0,0,1.000,1.000,1.000,-90.00,180.00,0.00,OPEN,0
672339.729,0,0,0,1.000,1.000,1.000,-90.00,180.00,0.00,OPEN,0
672339.733,0,0,0,1.000,1.000,1.000,-90.00,180.00,0.00,OPEN,0
672339.737,0,0,0,1.000,1.000,1.000,-90.00,180.00,0.00,OPEN,0
672339.741,0,0,0,1.000,1.000,1.000,-90.00,180.00,0.00,OPEN,0
672339.746,0,0,0,1.000,1.000,1.000,-90.00,180.00,0.00,OPEN,0
672339.751,0,0,0,1.000,1.000,1.000,-90.00,180.00,0.00,OPEN,0
672339.755,0,0,0,1.000,1.000,1.000,-90.00,180.00,0.00,OPEN,0
672339.759,0,0,0,1.000,1.000,1.000,-90.00,180.00,0.00,OPEN,0
672339.763,0,0,0,1.000,1.000,1.000,-90.00,180.00,0.00,OPEN,0
672339.766,0,0,0,1.000,1.000,1.000,-90.00,180.00,0.00,OPEN,0
672339.770,0,0,0,1.000,1.000,1.000,-90.00,180.00,0.00,OPEN,0
672339.774,0,0,0,1.000,1.000,1.000,-90.00,180.00,0.00,OPEN,0
672339.777,0,0,0,1.000,1.000,1.000,-90.00,180.00,0.00,OPEN,0
672339.781,0,0,0,1.000,1.000,1.000,-90.00,180.00,0.00,OPEN,0
672339.784,0,0,0,1.000,1.000,1.000,-90.00,180.00,0.00,OPEN,0
672339.788,0,0,0,1.000,1.000,1.000,-90.00,180.00,0.00,OPEN,0
672339.794,0,0,0,1.000,1.000,1.000,-90.00,180.00,0.00,OPEN,0
672339.800,0,0,0,1.000,1.000,1.000,-90.00,180.00,0.00,OPEN,0
672339.805,0,0,0,1.000,1.000,1.000,-90.00,180.00,0.00,OPEN,0
672339.810,0,0,0,1.000,1.000,1.000,-90.00,180.00,0.00,OPEN,0
672339.814,0,0,0,1.000,1.000,1.000,-90.00,180.00,0.00,OPEN,0
672339.818,0,0,0,1.000,1.000,1.000,-90.00,180.00,0.00,OPEN,0
672339.823,0,0,0,1.000,1.000,1.000,-90.00,180.00,0.00,OPEN,0
672339.826,0,0,0,1.000,1.000,1.000,-90.00,180.00,0.00,OPEN,0
672339.830,0,0,0,1.000,1.000,1.000,-90.00,180.00,0.00,OPEN,0
672339.836,0,0,0,1.000,1.000,1.000,-90.00,180.00,0.00,OPEN,0
672339.839,0,0,0,1.000,1.000,1.000,-90.00,180.00,0.00,OPEN,0
672339.843,0,0,0,1.000,1.000,1.000,-90.00,180.00,0.00,OPEN,0
672339.847,0,0,0,1.000,1.000,1.000,-90.00,180.00,0.00,OPEN,0
672339.851,0,0,0,1.000,1.000,1.000,-90.00,180.00,0.00,OPEN,0
672339.855,0,0,0,1.000,1.000,1.000,-90.00,180.00,0.00,OPEN,0
672339.858,0,0,0,1.000,1.000,1.000,-90.00,180.00,0.00,OPEN,0
672339.862,0,0,0,1.000,1.000,1.000,-90.00,180.00,0.00,OPEN,0
672339.866,0,0,0,1.000,1.000,1.000,-90.00,180.00,0.00,OPEN,0
672339.870,0,0,0,1.000,1.000,1.000,-90.00,180.00,0.00,OPEN,0
672339.873,0,0,0,1.000,1.000,1.000,-90.00,180.00,0.00,OPEN,0
672339.876,0,0,0,1.000,1.000,1.000,-90.00,180.00,0.00,OPEN,0
672339.880,0,0,0,1.000,1.000,1.000,-90.00,180.00,0.00,OPEN,0
672339.883,0,0,0,1.000,1.000,1.000,-90.00,180.00,0.00,OPEN,0
672339.887,0,0,0,1.000,1.000,1.000,-90.00,180.00,0.00,OPEN,0
672339.891,0,0,0,1.000,1.000,1.000,-90.00,180.00,0.00,OPEN,0
672339.895,0,0,0,1.000,1.000,1.000,-90.00,180.00,0.00,OPEN,0
672339.898,0,0,0,1.000,1.000,1.000,-90.00,180.00,0.00,OPEN,0
672339.902,0,0,0,1.000,1.000,1.000,-90.00,180.00,0.00,OPEN,0
672339.905,0,0,0,1.000,1.000,1.000,-90.00,180.00,0.00,OPEN,0
672339.908,0,0,0,1.000,1.000,1.000,-90.00,180.00,0.00,OPEN,0
672339.911,0,0,0,1.000,1.000,1.000,-90.00,180.00,0.00,OPEN,0
672339.915,0,0,0,1.000,1.000,1.000,-90.00,180.00,0.00,OPEN,0
672339.919,0,0,0,1.000,1.000,1.000,-90.00,180.00,0.00,OPEN,0
672339.923,0,0,0,1.000,1.000,1.000,-90.00,180.00,0.00,OPEN,0
672339.927,0,0,0,1.000,1.000,1.000,-90.00,180.00,0.00,OPEN,0
672339.932,0,0,0,1.000,1.000,1.000,-90.00,180.00,0.00,OPEN,0
672339.936,0,0,0,1.000,1.000,1.000,-90.00,180.00,0.00,OPEN,0
672339.939,0,0,0,1.000,1.000,1.000,-90.00,180.00,0.00,OPEN,0
672339.943,0,0,0,1.000,1.000,1.000,-90.00,180.00,0.00,OPEN,0
672339.949,0,0,0,1.000,1.000,1.000,-90.00,180.00,0.00,OPEN,0
672339.955,0,0,0,1.000,1.000,1.000,-90.00,180.00,0.00,OPEN,0
672339.960,0,0,0,1.000,1.000,1.000,-90.00,180.00,0.00,OPEN,0
672339.965,0,0,0,1.000,1.000,1.000,-90.00,180.00,0.00,OPEN,0
672339.969,0,0,0,1.000,1.000,1.000,-90.00,180.00,0.00,OPEN,0
672339.974,0,0,0,1.000,1.000,1.000,-90.00,180.00,0.00,OPEN,0
672339.978,0,0,0,1.000,1.000,1.000,-90.00,180.00,0.00,OPEN,0
672339.983,0,0,0,1.000,1.000,1.000,-90.00,180.00,0.00,OPEN,0
672339.987,0,0,0,1.000,1.000,1.000,-90.00,180.00,0.00,OPEN,0
672339.991,0,0,0,1.000,1.000,1.000,-90.00,180.00,0.00,OPEN,0
672339.996,0,0,0,1.000,1.000,1.000,-90.00,180.00,0.00,OPEN,0
672339.999,0,0,0,1.000,1.000,1.000,-90.00,180.00,0.00,OPEN,0
672340.003,0,0,0,1.000,1.000,1.000,-90.00,180.00,0.00,OPEN,0
672340.006,0,0,0,1.000,1.000,1.000,-90.00,180.00,0.00,OPEN,0
672340.010,0,0,0,1.000,1.000,1.000,-90.00,180.00,0.00,OPEN,0
672340.014,0,0,0,1.000,1.000,1.000,-90.00,180.00,0.00,OPEN,0
672340.017,0,0,0,1.000,1.000,1.000,-90.00,180.00,0.00,OPEN,0
672340.021,0,0,0,1.000,1.000,1.000,-90.00,180.00,0.00,OPEN,0
672340.026,0,0,0,1.000,1.000,1.000,-90.00,180.00,0.00,OPEN,0
672340.030,0,0,0,1.000,1.000,1.000,-90.00,180.00,0.00,OPEN,0
672340.034,0,0,0,1.000,1.000,1.000,-90.00,180.00,0.00,OPEN,0
672340.037,0,0,0,1.000,1.000,1.000,-90.00,180.00,0.00,OPEN,0
672340.041,0,0,0,1.000,1.000,1.000,-90.00,180.00,0.00,OPEN,0
672340.044,0,0,0,1.000,1.000,1.000,-90.00,180.00,0.00,OPEN,0
672340.048,0,0,0,1.000,1.000,1.000,-90.00,180.00,0.00,OPEN,0
672340.054,0,0,0,1.000,1.000,1.000,-90.00,180.00,0.00,OPEN,0
672340.058,0,0,0,1.000,1.000,1.000,-90.00,180.00,0.00,OPEN,0
672340.062,0,0,0,1.000,1.000,1.000,-90.00,180.00,0.00,OPEN,0
672340.065,0,0,0,1.000,1.000,1.000,-90.00,180.00,0.00,OPEN,0
672340.070,0,0,0,1.000,1.000,1.000,-90.00,180.00,0.00,OPEN,0
672340.074,0,0,0,1.000,1.000,1.000,-90.00,180.00,0.00,OPEN,0
672340.079,0,0,0,1.000,1.000,1.000,-90.00,180.00,0.00,OPEN,0
672340.083,0,0,0,1.000,1.000,1.000,-90.00,180.00,0.00,OPEN,0
672340.088,0,0,0,1.000,1.000,1.000,-90.00,180.00,0.00,OPEN,0
672340.092,0,0,0,1.000,1.000,1.000,-90.00,180.00,0.00,OPEN,0
672340.096,0,0,0,1.000,1.000,1.000,-90.00,180.00,0.00,OPEN,0
672340.100,0,0,0,1.000,1.000,1.000,-90.00,180.00,0.00,OPEN,0
672340.105,0,0,0,1.000,1.000,1.000,-90.00,180.00,0.00,OPEN,0
672340.109,0,0,0,1.000,1.000,1.000,-90.00,180.00,0.00,OPEN,0
672340.113,0,0,0,1.000,1.000,1.000,-90.00,180.00,0.00,OPEN,0
672340.117,0,0,0,1.000,1.000,1.000,-90.00,180.00,0.00,OPEN,0
672340.120,0,0,0,1.000,1.000,1.000,-90.00,180.00,0.00,OPEN,0
672340.124,0,0,0,1.000,1.000,1.000,-90.00,180.00,0.00,OPEN,0
672340.127,0,0,0,1.000,0.999,1.000,-90.00,180.00,0.00,OPEN,0
672340.131,0,0,0,1.000,0.997,1.000,-90.00,180.00,0.00,OPEN,0
672340.134,0,0,0,1.000,0.994,1.000,-90.00,180.00,0.00,OPEN,0
672340.138,0,0,0,1.000,0.998,1.000,-90.00,180.00,0.00,OPEN,0
672340.142,0,0,0,1.000,0.999,1.000,-90.00,180.00,0.00,OPEN,0
672340.148,0,0,0,1.000,1.000,1.000,-90.00,180.00,0.00,OPEN,0
672340.154,0,0,0,1.000,1.000,1.000,-90.00,180.00,0.00,OPEN,0
672340.158,0,0,0,1.000,1.000,1.000,-90.00,180.00,0.00,OPEN,0
672340.163,0,0,0,1.000,1.000,1.000,-90.00,180.00,0.00,OPEN,0
672340.168,0,0,0,1.000,1.000,1.000,-90.00,180.00,0.00,OPEN,0
672340.172,0,0,0,1.000,1.000,1.000,-90.00,180.00,0.00,OPEN,0
672340.176,0,0,0,1.000,1.000,1.000,-90.00,180.00,0.00,OPEN,0
672340.180,0,0,0,1.000,1.000,1.000,-90.00,180.00,0.00,OPEN,0
672340.184,0,0,0,1.000,1.000,1.000,-90.00,180.00,0.00,OPEN,0
672340.188,0,0,0,0.540,1.000,1.000,-90.00,180.00,0.00,OPEN,0
672340.192,0,0,0,0.866,1.000,1.000,-90.00,180.00,0.00,OPEN,0
672340.196,0,0,0,0.570,1.000,1.000,-90.00,180.00,0.00,OPEN,0
672340.199,0,0,0,0.697,1.000,1.000,-90.00,180.00,0.00,OPEN,0
672340.203,0,0,0,0.604,1.000,1.000,-90.00,180.00,0.00,OPEN,0
672340.206,0,0,0,0.676,1.000,1.000,-90.00,180.00,0.00,OPEN,0
672340.209,0,0,0,0.688,1.000,1.000,-90.00,180.00,0.00,OPEN,0
672340.213,0,0,0,0.960,1.000,1.000,-90.00,180.00,0.00,OPEN,0
672340.216,0,0,0,1.000,1.000,1.000,-90.00,180.00,0.00,OPEN,0
672340.220,0,0,0,1.000,1.000,1.000,-90.00,180.00,0.00,OPEN,0
672340.224,0,0,0,1.000,1.000,1.000,-90.00,180.00,0.00,OPEN,0
672340.228,0,0,0,1.000,1.000,1.000,-90.00,180.00,0.00,OPEN,0
672340.231,0,0,0,1.000,1.000,1.000,-90.00,180.00,0.00,OPEN,0
672340.235,0,0,0,1.000,1.000,1.000,-90.00,180.00,0.00,OPEN,0
672340.239,0,0,0,1.000,1.000,1.000,-90.00,180.00,0.00,OPEN,0
672340.242,0,0,0,1.000,1.000,1.000,-90.00,180.00,0.00,OPEN,0
672340.249,0,0,0,1.000,1.000,1.000,-90.00,180.00,0.00,OPEN,0
672340.252,0,0,0,1.000,1.000,1.000,-90.00,180.00,0.00,OPEN,0
672340.256,0,0,0,1.000,1.000,1.000,-90.00,180.00,0.00,OPEN,0
672340.260,0,0,0,1.000,1.000,1.000,-90.00,180.00,0.00,OPEN,0
672340.264,0,0,0,1.000,1.000,1.000,-90.00,180.00,0.00,OPEN,0
672340.269,0,0,0,1.000,1.000,1.000,-90.00,180.00,0.00,OPEN,0
672340.278,0,0,0,1.000,1.000,1.000,-90.00,180.00,0.00,OPEN,0
672340.283,0,0,0,1.000,1.000,1.000,-90.00,180.00,0.00,OPEN,0
672340.289,0,0,0,1.000,1.000,1.000,-90.00,180.00,0.00,OPEN,0
672340.294,0,0,0,1.000,1.000,1.000,-90.00,180.00,0.00,OPEN,0
672340.299,0,0,0,1.000,1.000,1.000,-90.00,180.00,0.00,OPEN,0
672340.304,0,0,0,1.000,1.000,1.000,-90.00,180.00,0.00,OPEN,0
672340.308,0,0,0,1.000,1.000,1.000,-90.00,180.00,0.00,OPEN,0
672340.313,0,0,0,1.000,1.000,1.000,-90.00,180.00,0.00,OPEN,0
672340.317,0,0,0,1.000,1.000,1.000,-90.00,180.00,0.00,OPEN,0
672340.320,0,0,0,1.000,1.000,1.000,-90.00,180.00,0.00,OPEN,0
672340.324,0,0,0,1.000,1.000,1.000,-90.00,180.00,0.00,OPEN,0
672340.329,0,0,0,1.000,1.000,1.000,-90.00,180.00,0.00,OPEN,0
672340.334,0,0,0,1.000,1.000,1.000,-90.00,180.00,0.00,OPEN,0
672340.338,0,0,0,0.999,1.000,1.000,-90.00,180.00,0.00,OPEN,0
672340.342,0,0,0,1.000,1.000,1.000,-90.00,180.00,0.00,OPEN,0
672340.346,0,0,0,1.000,1.000,1.000,-90.00,180.00,0.00,OPEN,0
672340.350,0,0,0,1.000,1.000,1.000,-90.00,180.00,0.00,OPEN,0
672340.354,0,0,0,1.000,1.000,1.000,-90.00,180.00,0.00,OPEN,0
672340.359,0,0,0,1.000,1.000,1.000,-90.00,180.00,0.00,OPEN,0
672340.363,0,0,0,1.000,1.000,1.000,-90.00,180.00,0.00,OPEN,0
672340.368,0,0,0,1.000,1.000,1.000,-90.00,180.00,0.00,OPEN,0
672340.373,0,0,0,1.000,1.000,1.000,-90.00,180.00,0.00,OPEN,0
672340.377,0,0,0,1.000,1.000,1.000,-90.00,180.00,0.00,OPEN,0
672340.381,0,0,0,1.000,1.000,1.000,-90.00,180.00,0.00,OPEN,0
672340.385,0,0,0,1.000,1.000,1.000,-90.00,180.00,0.00,OPEN,0
672340.390,0,0,0,1.000,1.000,1.000,-90.00,180.00,0.00,OPEN,0
672340.395,0,0,0,1.000,1.000,1.000,-90.00,180.00,0.00,OPEN,0
672340.400,0,0,0,1.000,1.000,1.000,-90.00,180.00,0.00,OPEN,0
672340.405,0,0,0,1.000,1.000,1.000,-90.00,180.00,0.00,OPEN,0
672340.409,0,0,0,1.000,1.000,1.000,-90.00,180.00,0.00,OPEN,0
672340.413,0,0,0,1.000,1.000,1.000,-90.00,180.00,0.00,OPEN,0
672340.418,0,0,0,1.000,1.000,1.000,-90.00,180.00,0.00,OPEN,0
672340.422,0,0,0,0.999,1.000,1.000,-90.00,180.00,0.00,OPEN,0
672340.426,0,0,0,1.000,1.000,1.000,-90.00,180.00,0.00,OPEN,0
672340.430,0,0,0,1.000,1.000,1.000,-90.00,180.00,0.00,OPEN,0
672340.434,0,0,0,1.000,1.000,1.000,-90.00,180.00,0.00,OPEN,0
672340.443,0,0,0,1.000,1.000,1.000,-90.00,180.00,0.00,OPEN,0
672340.457,0,0,0,1.000,1.000,1.000,-90.00,180.00,0.00,OPEN,0
672340.470,0,0,0,1.000,1.000,1.000,-90.00,180.00,0.00,OPEN,0
672340.477,0,0,0,1.000,1.000,1.000,-90.00,180.00,0.00,OPEN,0
672340.484,0,0,0,1.000,1.000,1.000,-90.00,180.00,0.00,OPEN,0
672340.491,0,0,0,1.000,1.000,1.000,-90.00,180.00,0.00,OPEN,0
672340.497,0,0,0,1.000,1.000,1.000,-90.00,180.00,0.00,OPEN,0
672340.502,0,0,0,1.000,1.000,1.000,-90.00,180.00,0.00,OPEN,0
672340.506,0,0,0,1.000,1.000,1.000,-90.00,180.00,0.00,OPEN,0
672340.510,0,0,0,1.000,1.000,1.000,-90.00,180.00,0.00,OPEN,0
672340.514,0,0,0,1.000,1.000,1.000,-90.00,180.00,0.00,OPEN,0
672340.517,0,0,0,0.999,1.000,1.000,-90.00,180.00,0.00,OPEN,0
672340.521,0,0,0,1.000,1.000,1.000,-90.00,180.00,0.00,OPEN,0
672340.525,0,0,0,1.000,1.000,1.000,-90.00,180.00,0.00,OPEN,0
672340.528,0,0,0,1.000,1.000,1.000,-90.00,180.00,0.00,OPEN,0
672340.532,0,0,0,1.000,1.000,1.000,-90.00,180.00,0.00,OPEN,0
672340.536,0,0,0,1.000,1.000,1.000,-90.00,180.00,0.00,OPEN,0
672340.540,0,0,0,1.000,1.000,1.000,-90.00,180.00,0.00,OPEN,0
672340.544,0,0,0,1.000,1.000,1.000,-90.00,180.00,0.00,OPEN,0
672340.548,0,0,0,1.000,1.000,1.000,-90.00,180.00,0.00,OPEN,0
672340.552,0,0,0,1.000,1.000,1.000,-90.00,180.00,0.00,OPEN,0
672340.555,0,0,0,1.000,1.000,1.000,-90.00,180.00,0.00,OPEN,0
672340.559,0,0,0,1.000,1.000,1.000,-90.00,180.00,0.00,OPEN,0
672340.563,0,0,0,1.000,1.000,1.000,-90.00,180.00,0.00,OPEN,0
672340.567,0,0,0,1.000,1.000,1.000,-90.00,180.00,0.00,OPEN,0
672340.571,0,0,0,1.000,1.000,1.000,-90.00,180.00,0.00,OPEN,0
672340.575,0,0,0,1.000,1.000,1.000,-90.00,180.00,0.00,OPEN,0
672340.578,0,0,0,1.000,1.000,1.000,-90.00,180.00,0.00,OPEN,0
672340.581,0,0,0,1.000,1.000,1.000,-90.00,180.00,0.00,OPEN,0
672340.585,0,0,0,1.000,1.000,1.000,-90.00,180.00,0.00,OPEN,0
672340.589,0,0,0,1.000,1.000,1.000,-90.00,180.00,0.00,OPEN,0
672340.593,0,0,0,1.000,1.000,1.000,-90.00,180.00,0.00,OPEN,0
672340.596,0,0,0,1.000,1.000,1.000,-90.00,180.00,0.00,OPEN,0
672340.599,0,0,0,1.000,1.000,1.000,-90.00,180.00,0.00,OPEN,0
672340.604,0,0,0,1.000,1.000,1.000,-90.00,180.00,0.00,OPEN,0
672340.608,0,0,0,1.000,1.000,1.000,-90.00,180.00,0.00,OPEN,0
672340.612,0,0,0,1.000,1.000,1.000,-90.00,180.00,0.00,OPEN,0
672340.615,0,0,0,1.000,1.000,1.000,-90.00,180.00,0.00,OPEN,0
672340.619,0,0,0,1.000,1.000,1.000,-90.00,180.00,0.00,OPEN,0
672340.623,0,0,0,1.000,1.000,1.000,-90.00,180.00,0.00,OPEN,0
672340.626,0,0,0,1.000,1.000,1.000,-90.00,180.00,0.00,OPEN,0
672340.630,0,0,0,1.000,1.000,1.000,-90.00,180.00,0.00,OPEN,0
672340.633,0,0,0,1.000,1.000,1.000,-90.00,180.00,0.00,OPEN,0
672340.637,0,0,0,1.000,1.000,1.000,-90.00,180.00,0.00,OPEN,0
672340.641,0,0,0,1.000,1.000,1.000,-90.00,180.00,0.00,OPEN,0
672340.644,0,0,0,1.000,1.000,1.000,-90.00,180.00,0.00,OPEN,0
672340.648,0,0,0,1.000,1.000,1.000,-90.00,180.00,0.00,OPEN,0
672340.652,0,0,0,1.000,1.000,1.000,-90.00,180.00,0.00,OPEN,0
672340.655,0,0,0,1.000,1.000,1.000,-90.00,180.00,0.00,OPEN,0
672340.659,0,0,0,1.000,1.000,1.000,-90.00,180.00,0.00,OPEN,0
672340.663,0,0,0,1.000,1.000,1.000,-90.00,180.00,0.00,OPEN,0
672340.666,0,0,0,1.000,1.000,1.000,-90.00,180.00,0.00,OPEN,0
672340.670,0,0,0,1.000,1.000,1.000,-90.00,180.00,0.00,OPEN,0
672340.673,0,0,0,1.000,1.000,1.000,-90.00,180.00,0.00,OPEN,0
672340.677,0,0,0,1.000,1.000,1.000,-90.00,180.00,0.00,OPEN,0
672340.680,0,0,0,1.000,1.000,1.000,-90.00,180.00,0.00,OPEN,0
672340.684,0,0,0,1.000,1.000,1.000,-90.00,180.00,0.00,OPEN,0
672340.687,0,0,0,1.000,1.000,1.000,-90.00,180.00,0.00,OPEN,0
672340.691,0,0,0,1.000,1.000,1.000,-90.00,180.00,0.00,OPEN,0
672340.694,0,0,0,1.000,1.000,1.000,-90.00,180.00,0.00,OPEN,0
672340.698,0,0,0,1.000,1.000,1.000,-90.00,180.00,0.00,OPEN,0
672340.702,0,0,0,1.000,1.000,1.000,-90.00,180.00,0.00,OPEN,0
672340.705,0,0,0,1.000,1.000,1.000,-90.00,180.00,0.00,OPEN,0
672340.709,0,0,0,1.000,1.000,1.000,-90.00,180.00,0.00,OPEN,0
672340.712,0,0,0,1.000,1.000,1.000,-90.00,180.00,0.00,OPEN,0
672340.716,0,0,0,1.000,1.000,1.000,-90.00,180.00,0.00,OPEN,0
672340.720,0,0,0,1.000,1.000,1.000,-90.00,180.00,0.00,OPEN,0
672340.724,0,0,0,1.000,1.000,1.000,-90.00,180.00,0.00,OPEN,0
672340.728,0,0,0,1.000,1.000,1.000,-90.00,180.00,0.00,OPEN,0
672340.731,0,0,0,1.000,1.000,1.000,-90.00,180.00,0.00,OPEN,0
672340.735,0,0,0,1.000,1.000,1.000,-90.00,180.00,0.00,OPEN,0
672340.739,0,0,0,1.000,1.000,1.000,-90.00,180.00,0.00,OPEN,0
672340.743,0,0,0,1.000,1.000,1.000,-90.00,180.00,0.00,OPEN,0
672340.747,0,0,0,1.000,1.000,1.000,-90.00,180.00,0.00,OPEN,0
672340.753,0,0,0,1.000,1.000,1.000,-90.00,180.00,0.00,OPEN,0
672340.757,0,0,0,1.000,1.000,1.000,-90.00,180.00,0.00,OPEN,0
672340.761,0,0,0,1.000,1.000,1.000,-90.00,180.00,0.00,OPEN,0
672340.765,0,0,0,1.000,1.000,1.000,-90.00,180.00,0.00,OPEN,0
672340.768,0,0,0,1.000,1.000,1.000,-90.00,180.00,0.00,OPEN,0
672340.772,0,0,0,1.000,1.000,1.000,-90.00,180.00,0.00,OPEN,0
672340.776,0,0,0,1.000,1.000,1.000,-90.00,180.00,0.00,OPEN,0
672340.779,0,0,0,1.000,1.000,1.000,-90.00,180.00,0.00,OPEN,0
672340.783,0,0,0,1.000,1.000,1.000,-90.00,180.00,0.00,OPEN,0
672340.786,0,0,0,1.000,1.000,1.000,-90.00,180.00,0.00,OPEN,0
672340.790,0,0,0,1.000,1.000,1.000,-90.00,180.00,0.00,OPEN,0
672340.794,0,0,0,1.000,1.000,1.000,-90.00,180.00,0.00,OPEN,0
672340.797,0,0,0,0.999,1.000,1.000,-90.00,180.00,0.00,OPEN,0
672340.801,0,0,0,0.866,1.000,1.000,-90.00,180.00,0.00,OPEN,0
672340.805,0,0,0,0.663,1.000,1.000,-90.00,180.00,0.00,OPEN,0
672340.809,0,0,0,0.938,1.000,1.000,-90.00,180.00,0.00,OPEN,0
672340.813,0,0,0,0.994,1.000,1.000,-90.00,180.00,0.00,OPEN,0
672340.817,0,0,0,0.999,1.000,1.000,-90.00,180.00,0.00,OPEN,0
672340.820,0,0,0,1.000,1.000,1.000,-90.00,180.00,0.00,OPEN,0
672340.824,0,0,0,1.000,1.000,1.000,-90.00,180.00,0.00,OPEN,0
672340.828,0,0,0,1.000,1.000,1.000,-90.00,180.00,0.00,OPEN,0
672340.832,0,0,0,1.000,1.000,1.000,-90.00,180.00,0.00,OPEN,0
672340.836,2,0,0,1.000,1.000,1.000,-90.00,180.00,-4.50,OPEN,1
672340.840,2,0,0,1.000,1.000,1.000,-90.00,180.00,-4.50,OPEN,0
672340.844,2,0,0,1.000,1.000,1.000,-90.00,180.00,-4.50,OPEN,0
672340.848,2,0,0,1.000,1.000,1.000,-90.00,180.00,-4.50,OPEN,0
672340.852,2,0,0,1.000,1.000,1.000,-90.00,180.00,-4.50,OPEN,0
672340.856,2,0,0,1.000,1.000,1.000,-90.00,180.00,-4.50,OPEN,0
672340.860,2,0,0,1.000,1.000,1.000,-90.00,180.00,-4.50,OPEN,0
672340.863,2,0,0,1.000,1.000,1.000,-90.00,180.00,-4.50,OPEN,0
672340.867,2,0,0,1.000,1.000,1.000,-90.00,180.00,-4.50,OPEN,0
672340.871,2,0,0,1.000,1.000,1.000,-90.00,180.00,-4.50,OPEN,0
672340.875,2,0,0,1.000,1.000,1.000,-90.00,180.00,-4.50,OPEN,0
672340.878,2,0,0,1.000,1.000,1.000,-90.00,180.00,-4.50,OPEN,0
672340.882,2,0,0,1.000,1.000,1.000,-90.00,180.00,-4.50,OPEN,0
672340.886,2,0,0,1.000,1.000,1.000,-90.00,180.00,-4.50,OPEN,0
672340.890,2,0,0,1.000,1.000,1.000,-90.00,180.00,-4.50,OPEN,0
672340.894,2,0,0,1.000,1.000,1.000,-90.00,180.00,-4.50,OPEN,0
672340.898,2,0,0,1.000,1.000,1.000,-90.00,180.00,-4.50,OPEN,0
672340.902,2,0,0,1.000,1.000,1.000,-90.00,180.00,-4.50,OPEN,0
672340.906,2,0,0,1.000,1.000,1.000,-90.00,180.00,-4.50,OPEN,0
672340.911,2,0,0,1.000,1.000,1.000,-90.00,180.00,-4.50,OPEN,0
672340.917,2,0,0,1.000,1.000,1.000,-90.00,180.00,-4.50,OPEN,0
672340.922,2,0,0,1.000,1.000,1.000,-90.00,180.00,-4.50,OPEN,0
672340.927,2,0,0,1.000,1.000,1.000,-90.00,180.00,-4.50,OPEN,0
672340.932,2,0,0,1.000,1.000,1.000,-90.00,180.00,-4.50,OPEN,0
672340.937,2,0,0,1.000,1.000,1.000,-90.00,180.00,-9.00,OPEN,1
672340.941,2,0,0,1.000,1.000,1.000,-90.00,180.00,-9.00,OPEN,0
672340.947,2,0,0,1.000,1.000,1.000,-90.00,180.00,-9.00,OPEN,0
672340.951,2,0,0,1.000,1.000,1.000,-90.00,180.00,-9.00,OPEN,0
672340.955,2,0,0,1.000,1.000,1.000,-90.00,180.00,-9.00,OPEN,0
672340.959,2,0,0,1.000,1.000,1.000,-90.00,180.00,-9.00,OPEN,0
672340.963,2,0,0,1.000,1.000,1.000,-90.00,180.00,-9.00,OPEN,0
672340.966,2,0,0,1.000,1.000,1.000,-90.00,180.00,-9.00,OPEN,0
672340.970,2,0,0,1.000,1.000,1.000,-90.00,180.00,-9.00,OPEN,0
672340.973,2,0,0,1.000,1.000,1.000,-90.00,180.00,-9.00,OPEN,0
672340.977,2,0,0,1.000,1.000,1.000,-90.00,180.00,-9.00,OPEN,0
672340.980,2,0,0,1.000,1.000,1.000,-90.00,180.00,-9.00,OPEN,0
672340.984,2,0,0,1.000,1.000,1.000,-90.00,180.00,-9.00,OPEN,0
672340.988,2,0,0,1.000,1.000,1.000,-90.00,180.00,-9.00,OPEN,0
672340.993,2,0,0,1.000,1.000,1.000,-90.00,180.00,-9.00,OPEN,0
672340.997,2,0,0,1.000,1.000,1.000,-90.00,180.00,-9.00,OPEN,0
672341.001,2,0,0,1.000,1.000,1.000,-90.00,180.00,-9.00,OPEN,0
672341.005,2,0,0,1.000,1.000,1.000,-90.00,180.00,-9.00,OPEN,0
672341.009,2,0,0,1.000,1.000,1.000,-90.00,180.00,-9.00,OPEN,0
672341.015,2,0,0,1.000,1.000,1.000,-90.00,180.00,-9.00,OPEN,0
672341.019,2,0,0,1.000,1.000,1.000,-90.00,180.00,-9.00,OPEN,0
672341.022,2,0,0,1.000,1.000,1.000,-90.00,180.00,-9.00,OPEN,0
672341.026,2,0,0,1.000,1.000,1.000,-90.00,180.00,-9.00,OPEN,0
672341.029,2,0,0,1.000,1.000,1.000,-90.00,180.00,-9.00,OPEN,0
672341.033,2,0,0,1.000,1.000,1.000,-90.00,180.00,-9.00,OPEN,0
672341.036,2,0,0,1.000,1.000,1.000,-90.00,180.00,-9.00,OPEN,0
672341.040,2,0,0,1.000,1.000,1.000,-90.00,180.00,-13.50,OPEN,1
672341.044,2,0,0,1.000,1.000,1.000,-90.00,180.00,-13.50,OPEN,0
672341.047,2,0,0,1.000,1.000,1.000,-90.00,180.00,-13.50,OPEN,0
672341.051,2,0,0,1.000,1.000,1.000,-90.00,180.00,-13.50,OPEN,0
672341.055,2,0,0,1.000,1.000,1.000,-90.00,180.00,-13.50,OPEN,0
672341.059,2,0,0,1.000,1.000,1.000,-90.00,180.00,-13.50,OPEN,0
672341.063,2,0,0,1.000,1.000,1.000,-90.00,180.00,-13.50,OPEN,0
672341.067,2,0,0,1.000,1.000,1.000,-90.00,180.00,-13.50,OPEN,0
672341.071,2,0,0,1.000,1.000,1.000,-90.00,180.00,-13.50,OPEN,0
672341.076,2,0,0,1.000,1.000,1.000,-90.00,180.00,-13.50,OPEN,0
672341.080,2,0,0,1.000,1.000,1.000,-90.00,180.00,-13.50,OPEN,0
672341.084,2,0,0,1.000,1.000,1.000,-90.00,180.00,-13.50,OPEN,0
672341.088,2,0,0,1.000,1.000,1.000,-90.00,180.00,-13.50,OPEN,0
672341.092,2,0,0,1.000,1.000,1.000,-90.00,180.00,-13.50,OPEN,0
672341.095,2,0,0,1.000,1.000,1.000,-90.00,180.00,-13.50,OPEN,0
672341.099,2,0,0,1.000,1.000,1.000,-90.00,180.00,-13.50,OPEN,0
672341.103,2,0,0,1.000,1.000,1.000,-90.00,180.00,-13.50,OPEN,0
672341.107,2,0,0,1.000,1.000,1.000,-90.00,180.00,-13.50,OPEN,0
672341.111,2,0,0,1.000,1.000,1.000,-90.00,180.00,-13.50,OPEN,0
672341.114,2,0,0,1.000,1.000,1.000,-90.00,180.00,-13.50,OPEN,0
672341.118,2,0,0,1.000,1.000,1.000,-90.00,180.00,-13.50,OPEN,0
672341.121,2,0,0,1.000,1.000,1.000,-90.00,180.00,-13.50,OPEN,0
672341.125,2,0,0,1.000,1.000,1.000,-90.00,180.00,-13.50,OPEN,0
672341.130,2,0,0,1.000,1.000,1.000,-90.00,180.00,-13.50,OPEN,0
672341.136,2,0,0,1.000,1.000,1.000,-90.00,180.00,-13.50,OPEN,0
672341.142,2,0,0,1.000,1.000,1.000,-90.00,180.00,-18.00,OPEN,1
672341.147,2,0,0,1.000,1.000,1.000,-90.00,180.00,-18.00,OPEN,0
672341.152,2,0,0,1.000,1.000,1.000,-90.00,180.00,-18.00,OPEN,0
672341.157,2,0,0,1.000,1.000,1.000,-90.00,180.00,-18.00,OPEN,0
672341.162,2,0,0,1.000,1.000,1.000,-90.00,180.00,-18.00,OPEN,0
672341.167,2,0,0,1.000,1.000,1.000,-90.00,180.00,-18.00,OPEN,0
672341.171,2,0,0,1.000,1.000,1.000,-90.00,180.00,-18.00,OPEN,0
672341.174,2,0,0,1.000,1.000,1.000,-90.00,180.00,-18.00,OPEN,0
672341.177,2,0,0,1.000,1.000,1.000,-90.00,180.00,-18.00,OPEN,0
672341.181,2,0,0,1.000,1.000,1.000,-90.00,180.00,-18.00,OPEN,0
672341.185,2,0,0,1.000,1.000,1.000,-90.00,180.00,-18.00,OPEN,0
672341.188,2,0,0,1.000,1.000,1.000,-90.00,180.00,-18.00,OPEN,0
672341.192,2,0,0,1.000,1.000,1.000,-90.00,180.00,-18.00,OPEN,0
672341.195,2,0,0,1.000,1.000,1.000,-90.00,180.00,-18.00,OPEN,0
672341.199,2,0,0,1.000,1.000,1.000,-90.00,180.00,-18.00,OPEN,0
672341.202,2,0,0,1.000,1.000,1.000,-90.00,180.00,-18.00,OPEN,0
672341.205,2,0,0,1.000,1.000,1.000,-90.00,180.00,-18.00,OPEN,0
672341.209,2,0,0,1.000,1.000,1.000,-90.00,180.00,-18.00,OPEN,0
672341.213,2,0,0,1.000,1.000,1.000,-90.00,180.00,-18.00,OPEN,0
672341.217,2,0,0,1.000,1.000,1.000,-90.00,180.00,-18.00,OPEN,0
672341.221,2,0,0,1.000,1.000,1.000,-90.00,180.00,-18.00,OPEN,0
672341.225,2,0,0,1.000,1.000,1.000,-90.00,180.00,-18.00,OPEN,0
672341.229,2,0,0,1.000,1.000,1.000,-90.00,180.00,-18.00,OPEN,0
672341.232,2,0,0,1.000,1.000,1.000,-90.00,180.00,-18.00,OPEN,0
672341.236,2,0,0,1.000,1.000,1.000,-90.00,180.00,-18.00,OPEN,0
672341.240,2,0,0,1.000,1.000,1.000,-90.00,180.00,-18.00,OPEN,0
672341.243,2,0,0,1.000,1.000,1.000,-90.00,180.00,-22.50,OPEN,1
672341.247,2,0,0,1.000,1.000,1.000,-90.00,180.00,-22.50,OPEN,0
672341.250,2,0,0,1.000,1.000,1.000,-90.00,180.00,-22.50,OPEN,0
672341.254,2,0,0,1.000,1.000,1.000,-90.00,180.00,-22.50,OPEN,0
672341.258,2,0,0,1.000,1.000,1.000,-90.00,180.00,-22.50,OPEN,0
672341.261,2,0,0,1.000,1.000,1.000,-90.00,180.00,-22.50,OPEN,0
672341.265,2,0,0,1.000,1.000,1.000,-90.00,180.00,-22.50,OPEN,0
672341.269,2,0,0,1.000,1.000,1.000,-90.00,180.00,-22.50,OPEN,0
672341.272,2,0,0,1.000,1.000,1.000,-90.00,180.00,-22.50,OPEN,0
672341.276,2,0,0,1.000,1.000,1.000,-90.00,180.00,-22.50,OPEN,0
672341.281,2,0,0,1.000,1.000,1.000,-90.00,180.00,-22.50,OPEN,0
672341.286,2,0,0,1.000,1.000,1.000,-90.00,180.00,-22.50,OPEN,0
672341.291,2,0,0,1.000,1.000,1.000,-90.00,180.00,-22.50,OPEN,0
672341.296,2,0,0,1.000,1.000,1.000,-90.00,180.00,-22.50,OPEN,0
672341.301,2,0,0,1.000,1.000,1.000,-90.00,180.00,-22.50,OPEN,0
672341.305,2,0,0,0.999,1.000,1.000,-90.00,180.00,-22.50,OPEN,0
672341.309,2,0,0,0.968,1.000,1.000,-90.00,180.00,-22.50,OPEN,0
672341.313,2,0,0,0.730,1.000,1.000,-90.00,180.00,-22.50,OPEN,0
672341.317,2,0,0,0.954,1.000,1.000,-90.00,180.00,-22.50,OPEN,0
672341.321,2,0,0,0.989,1.000,1.000,-90.00,180.00,-22.50,OPEN,0
672341.324,2,0,0,0.992,1.000,1.000,-90.00,180.00,-22.50,OPEN,0
672341.328,2,0,0,0.988,1.000,1.000,-90.00,180.00,-22.50,OPEN,0
672341.331,2,0,0,0.986,1.000,1.000,-90.00,180.00,-22.50,OPEN,0
672341.335,2,0,0,0.980,1.000,1.000,-90.00,180.00,-22.50,OPEN,0
672341.339,2,0,0,0.875,1.000,1.000,-90.00,180.00,-22.50,OPEN,0
672341.342,2,0,0,0.922,1.000,1.000,-90.00,180.00,-22.50,OPEN,0
672341.346,2,0,0,1.000,1.000,1.000,-90.00,180.00,-27.00,OPEN,1
672341.349,2,0,0,1.000,1.000,1.000,-90.00,180.00,-27.00,OPEN,0
672341.353,2,0,0,1.000,1.000,1.000,-90.00,180.00,-27.00,OPEN,0
672341.357,2,0,0,1.000,1.000,1.000,-90.00,180.00,-27.00,OPEN,0
672341.361,2,0,0,1.000,1.000,1.000,-90.00,180.00,-27.00,OPEN,0
672341.364,2,0,0,1.000,1.000,1.000,-90.00,180.00,-27.00,OPEN,0
672341.368,0,0,0,1.000,1.000,1.000,-90.00,180.00,-27.00,OPEN,0
672341.372,0,0,0,1.000,1.000,1.000,-90.00,180.00,-27.00,OPEN,0
672341.375,0,0,0,1.000,1.000,1.000,-90.00,180.00,-27.00,OPEN,0
672341.379,0,0,0,1.000,1.000,1.000,-90.00,180.00,-27.00,OPEN,0
672341.382,0,0,0,1.000,1.000,1.000,-90.00,180.00,-27.00,OPEN,0
672341.386,0,0,0,1.000,1.000,1.000,-90.00,180.00,-27.00,OPEN,0
672341.390,0,0,0,1.000,1.000,1.000,-90.00,180.00,-27.00,OPEN,0
672341.393,0,0,0,1.000,1.000,1.000,-90.00,180.00,-27.00,OPEN,0
672341.397,0,0,0,1.000,1.000,1.000,-90.00,180.00,-27.00,OPEN,0
672341.400,0,0,0,1.000,1.000,1.000,-90.00,180.00,-27.00,OPEN,0
672341.404,0,0,0,1.000,1.000,1.000,-90.00,180.00,-27.00,OPEN,0
672341.408,0,0,0,1.000,1.000,1.000,-90.00,180.00,-27.00,OPEN,0
672341.413,0,0,0,1.000,1.000,1.000,-90.00,180.00,-27.00,OPEN,0
672341.417,0,0,0,1.000,1.000,1.000,-90.00,180.00,-27.00,OPEN,0
672341.421,0,0,0,1.000,1.000,1.000,-90.00,180.00,-27.00,OPEN,0
672341.425,0,0,0,1.000,1.000,1.000,-90.00,180.00,-27.00,OPEN,0
672341.428,0,0,0,1.000,1.000,1.000,-90.00,180.00,-27.00,OPEN,0
672341.432,0,0,0,1.000,1.000,1.000,-90.00,180.00,-27.00,OPEN,0
672341.436,0,0,0,1.000,1.000,1.000,-90.00,180.00,-27.00,OPEN,0
672341.440,0,0,0,1.000,1.000,1.000,-90.00,180.00,-27.00,OPEN,0
672341.444,0,0,0,1.000,1.000,1.000,-90.00,180.00,-27.00,OPEN,0
672341.448,0,0,0,1.000,1.000,1.000,-90.00,180.00,-27.00,OPEN,0
672341.451,0,0,0,1.000,1.000,1.000,-90.00,180.00,-27.00,OPEN,0
672341.456,0,0,0,1.000,1.000,1.000,-90.00,180.00,-27.00,OPEN,0
672341.460,0,0,0,1.000,1.000,1.000,-90.00,180.00,-27.00,OPEN,0
672341.465,0,0,0,1.000,1.000,1.000,-90.00,180.00,-27.00,OPEN,0
672341.470,0,0,0,1.000,1.000,1.000,-90.00,180.00,-27.00,OPEN,0
672341.473,0,0,0,1.000,1.000,1.000,-90.00,180.00,-27.00,OPEN,0
672341.477,0,0,0,1.000,1.000,1.000,-90.00,180.00,-27.00,OPEN,0
672341.481,0,0,0,1.000,1.000,1.000,-90.00,180.00,-27.00,OPEN,0
672341.485,0,0,0,1.000,1.000,1.000,-90.00,180.00,-27.00,OPEN,0
672341.488,0,0,0,1.000,1.000,1.000,-90.00,180.00,-27.00,OPEN,0
672341.492,0,0,0,1.000,1.000,1.000,-90.00,180.00,-27.00,OPEN,0
672341.496,0,0,0,1.000,1.000,1.000,-90.00,180.00,-27.00,OPEN,0
672341.500,0,0,0,1.000,1.000,1.000,-90.00,180.00,-27.00,OPEN,0
672341.503,0,0,0,1.000,1.000,1.000,-90.00,180.00,-27.00,OPEN,0
672341.507,0,0,0,1.000,1.000,1.000,-90.00,180.00,-27.00,OPEN,0
672341.512,0,0,0,1.000,1.000,1.000,-90.00,180.00,-27.00,OPEN,0
672341.518,0,0,0,1.000,1.000,1.000,-90.00,180.00,-27.00,OPEN,0
672341.523,0,0,0,1.000,1.000,1.000,-90.00,180.00,-27.00,OPEN,0
672341.528,0,0,0,1.000,1.000,1.000,-90.00,180.00,-27.00,OPEN,0
672341.533,0,0,0,1.000,1.000,1.000,-90.00,180.00,-27.00,OPEN,0
672341.537,0,0,0,1.000,1.000,1.000,-90.00,180.00,-27.00,OPEN,0
672341.542,0,0,0,1.000,1.000,1.000,-90.00,180.00,-27.00,OPEN,0
672341.547,0,0,0,1.000,1.000,1.000,-90.00,180.00,-27.00,OPEN,0
672341.551,0,0,0,1.000,1.000,1.000,-90.00,180.00,-27.00,OPEN,0
672341.555,0,0,0,1.000,1.000,1.000,-90.00,180.00,-27.00,OPEN,0
672341.559,0,0,0,1.000,1.000,1.000,-90.00,180.00,-27.00,OPEN,0
672341.562,0,0,0,1.000,1.000,1.000,-90.00,180.00,-27.00,OPEN,0
672341.566,0,0,0,1.000,1.000,1.000,-90.00,180.00,-27.00,OPEN,0
672341.570,0,0,0,1.000,1.000,1.000,-90.00,180.00,-27.00,OPEN,0
672341.574,0,0,0,1.000,1.000,1.000,-90.00,180.00,-27.00,OPEN,0
672341.577,0,0,0,1.000,1.000,1.000,-90.00,180.00,-27.00,OPEN,0
672341.581,0,0,0,1.000,1.000,1.000,-90.00,180.00,-27.00,OPEN,0
672341.584,0,0,0,1.000,1.000,1.000,-90.00,180.00,-27.00,OPEN,0
672341.588,0,0,0,1.000,1.000,1.000,-90.00,180.00,-27.00,OPEN,0
672341.591,0,0,0,1.000,1.000,1.000,-90.00,180.00,-27.00,OPEN,0
672341.595,0,0,0,1.000,1.000,1.000,-90.00,180.00,-27.00,OPEN,0
672341.598,0,0,0,1.000,1.000,1.000,-90.00,180.00,-27.00,OPEN,0
672341.603,0,0,0,1.000,1.000,1.000,-90.00,180.00,-27.00,OPEN,0
672341.607,0,0,0,1.000,1.000,1.000,-90.00,180.00,-27.00,OPEN,0
672341.611,0,0,0,1.000,1.000,1.000,-90.00,180.00,-27.00,OPEN,0
672341.615,0,0,0,1.000,1.000,1.000,-90.00,180.00,-27.00,OPEN,0
672341.620,0,0,0,1.000,1.000,1.000,-90.00,180.00,-27.00,OPEN,0
672341.625,0,0,0,1.000,1.000,1.000,-90.00,180.00,-27.00,OPEN,0
672341.629,0,0,0,1.000,1.000,1.000,-90.00,180.00,-27.00,OPEN,0
672341.633,0,0,0,1.000,1.000,1.000,-90.00,180.00,-27.00,OPEN,0
672341.637,0,0,0,1.000,1.000,1.000,-90.00,180.00,-27.00,OPEN,0
672341.641,0,0,0,1.000,1.000,1.000,-90.00,180.00,-27.00,OPEN,0
672341.645,0,0,0,1.000,1.000,1.000,-90.00,180.00,-27.00,OPEN,0
672341.649,0,0,0,1.000,1.000,1.000,-90.00,180.00,-27.00,OPEN,0
672341.653,0,0,0,1.000,1.000,1.000,-90.00,180.00,-27.00,OPEN,0
672341.657,0,0,0,1.000,1.000,1.000,-90.00,180.00,-27.00,OPEN,0
672341.660,0,0,0,1.000,1.000,1.000,-90.00,180.00,-27.00,OPEN,0
672341.664,0,0,0,1.000,1.000,1.000,-90.00,180.00,-27.00,OPEN,0
672341.667,0,0,0,1.000,1.000,1.000,-90.00,180.00,-27.00,OPEN,0
672341.671,0,0,0,1.000,1.000,1.000,-90.00,180.00,-27.00,OPEN,0
672341.674,0,0,0,1.000,1.000,1.000,-90.00,180.00,-27.00,OPEN,0
672341.678,0,0,0,1.000,1.000,1.000,-90.00,180.00,-27.00,OPEN,0
672341.681,0,0,0,1.000,1.000,1.000,-90.00,180.00,-27.00,OPEN,0
672341.685,0,0,0,1.000,1.000,1.000,-90.00,180.00,-27.00,OPEN,0
672341.689,0,0,0,1.000,1.000,1.000,-90.00,180.00,-27.00,OPEN,0
672341.693,0,0,0,1.000,1.000,1.000,-90.00,180.00,-27.00,OPEN,0
672341.698,0,0,0,1.000,1.000,1.000,-90.00,180.00,-27.00,OPEN,0
672341.702,0,0,0,1.000,1.000,1.000,-90.00,180.00,-27.00,OPEN,0
672341.706,0,0,0,1.000,1.000,1.000,-90.00,180.00,-27.00,OPEN,0
672341.710,0,0,0,1.000,1.000,1.000,-90.00,180.00,-27.00,OPEN,0
672341.716,0,0,0,1.000,1.000,1.000,-90.00,180.00,-27.00,OPEN,0
672341.720,0,0,0,1.000,1.000,1.000,-90.00,180.00,-27.00,OPEN,0
672341.723,0,0,0,1.000,1.000,1.000,-90.00,180.00,-27.00,OPEN,0
672341.727,0,0,0,1.000,1.000,1.000,-90.00,180.00,-27.00,OPEN,0
672341.731,0,0,0,1.000,1.000,1.000,-90.00,180.00,-27.00,OPEN,0
672341.734,0,0,0,1.000,1.000,1.000,-90.00,180.00,-27.00,OPEN,0
672341.739,0,0,0,1.000,1.000,1.000,-90.00,180.00,-27.00,OPEN,0
672341.744,0,0,0,1.000,1.000,1.000,-90.00,180.00,-27.00,OPEN,0
672341.749,0,0,0,1.000,1.000,1.000,-90.00,180.00,-27.00,OPEN,0
672341.753,0,0,0,1.000,1.000,1.000,-90.00,180.00,-27.00,OPEN,0
672341.758,0,0,0,1.000,1.000,1.000,-90.00,180.00,-27.00,OPEN,0
672341.762,0,0,0,1.000,1.000,1.000,-90.00,180.00,-27.00,OPEN,0
672341.767,0,0,0,1.000,1.000,1.000,-90.00,180.00,-27.00,OPEN,0
672341.771,0,0,0,1.000,1.000,1.000,-90.00,180.00,-27.00,OPEN,0
672341.775,0,0,0,1.000,1.000,1.000,-90.00,180.00,-27.00,OPEN,0
672341.779,0,0,0,1.000,1.000,1.000,-90.00,180.00,-27.00,OPEN,0
672341.783,0,0,0,1.000,1.000,1.000,-90.00,180.00,-27.00,OPEN,0
672341.787,0,0,0,1.000,1.000,1.000,-90.00,180.00,-27.00,OPEN,0
672341.791,0,0,0,1.000,1.000,1.000,-90.00,180.00,-27.00,OPEN,0
672341.794,0,0,0,1.000,1.000,1.000,-90.00,180.00,-27.00,OPEN,0
672341.798,0,0,0,1.000,1.000,1.000,-90.00,180.00,-27.00,OPEN,0
672341.801,0,0,0,1.000,1.000,1.000,-90.00,180.00,-27.00,OPEN,0
672341.805,0,0,0,1.000,1.000,1.000,-90.00,180.00,-27.00,OPEN,0
672341.808,0,0,0,1.000,1.000,1.000,-90.00,180.00,-27.00,OPEN,0
672341.812,0,0,0,1.000,1.000,1.000,-90.00,180.00,-27.00,OPEN,0
672341.815,0,0,0,1.000,1.000,1.000,-90.00,180.00,-27.00,OPEN,0
672341.819,0,0,0,1.000,1.000,1.000,-90.00,180.00,-27.00,OPEN,0
672341.822,0,0,0,1.000,1.000,1.000,-90.00,180.00,-27.00,OPEN,0
672341.826,0,0,0,1.000,1.000,1.000,-90.00,180.00,-27.00,OPEN,0
672341.830,0,0,0,1.000,1.000,1.000,-90.00,180.00,-27.00,OPEN,0
672341.834,0,0,0,1.000,1.000,1.000,-90.00,180.00,-27.00,OPEN,0
672341.837,0,0,0,1.000,1.000,1.000,-90.00,180.00,-27.00,OPEN,0
672341.841,0,0,0,1.000,1.000,1.000,-90.00,180.00,-27.00,OPEN,0
672341.846,0,0,0,1.000,1.000,1.000,-90.00,180.00,-27.00,OPEN,0
672341.850,0,0,0,1.000,1.000,1.000,-90.00,180.00,-27.00,OPEN,0
672341.855,0,0,0,1.000,1.000,1.000,-90.00,180.00,-27.00,OPEN,0
672341.858,0,0,0,1.000,1.000,1.000,-90.00,180.00,-27.00,OPEN,0
672341.862,0,0,0,1.000,1.000,1.000,-90.00,180.00,-27.00,OPEN,0
672341.865,0,0,0,1.000,1.000,1.000,-90.00,180.00,-27.00,OPEN,0
672341.870,0,0,0,1.000,1.000,1.000,-90.00,180.00,-27.00,OPEN,0
672341.874,0,0,0,1.000,1.000,1.000,-90.00,180.00,-27.00,OPEN,0
672341.877,0,0,0,1.000,1.000,1.000,-90.00,180.00,-27.00,OPEN,0
672341.881,0,0,0,1.000,1.000,1.000,-90.00,180.00,-27.00,OPEN,0
672341.884,0,0,0,1.000,1.000,1.000,-90.00,180.00,-27.00,OPEN,0
672341.888,0,0,0,0.768,1.000,1.000,-90.00,180.00,-27.00,OPEN,0
672341.892,0,0,0,0.955,1.000,1.000,-90.00,180.00,-27.00,OPEN,0
672341.895,0,0,0,0.990,1.000,1.000,-90.00,180.00,-27.00,OPEN,0
672341.899,0,0,0,0.998,1.000,1.000,-90.00,180.00,-27.00,OPEN,0
672341.903,0,0,0,0.999,1.000,1.000,-90.00,180.00,-27.00,OPEN,0
672341.906,0,0,0,1.000,1.000,1.000,-90.00,180.00,-27.00,OPEN,0
672341.909,0,0,0,1.000,1.000,1.000,-90.00,180.00,-27.00,OPEN,0
672341.913,0,0,0,1.000,1.000,1.000,-90.00,180.00,-27.00,OPEN,0
672341.917,0,0,0,1.000,1.000,1.000,-90.00,180.00,-27.00,OPEN,0
672341.922,0,0,0,1.000,1.000,1.000,-90.00,180.00,-27.00,OPEN,0
672341.925,0,0,0,1.000,1.000,1.000,-90.00,180.00,-27.00,OPEN,0
672341.929,0,0,0,1.000,1.000,1.000,-90.00,180.00,-27.00,OPEN,0
672341.933,0,0,0,1.000,1.000,1.000,-90.00,180.00,-27.00,OPEN,0
672341.937,0,0,0,1.000,1.000,1.000,-90.00,180.00,-27.00,OPEN,0
672341.941,0,0,0,1.000,1.000,1.000,-90.00,180.00,-27.00,OPEN,0
672341.944,0,0,0,1.000,1.000,1.000,-90.00,180.00,-27.00,OPEN,0
672341.948,0,0,0,1.000,1.000,1.000,-90.00,180.00,-27.00,OPEN,0
672341.951,0,0,0,1.000,1.000,1.000,-90.00,180.00,-27.00,OPEN,0
672341.955,0,0,0,1.000,1.000,1.000,-90.00,180.00,-27.00,OPEN,0
672341.959,0,0,0,1.000,1.000,1.000,-90.00,180.00,-27.00,OPEN,0
672341.964,0,0,0,1.000,1.000,1.000,-90.00,180.00,-27.00,OPEN,0
672341.969,3,0,0,1.000,1.000,1.000,-90.00,180.00,-27.00,CLOSED,0
672341.973,3,0,0,1.000,1.000,1.000,-90.00,180.00,-27.00,CLOSED,0
672341.977,3,0,0,1.000,1.000,1.000,-90.00,180.00,-27.00,CLOSED,0
672341.981,3,0,0,1.000,1.000,1.000,-90.00,180.00,-27.00,CLOSED,0
672341.985,3,0,0,1.000,1.000,1.000,-90.00,180.00,-27.00,CLOSED,0
672341.989,3,0,0,1.000,1.000,1.000,-90.00,180.00,-27.00,CLOSED,0
672341.992,3,0,0,1.000,1.000,1.000,-90.00,180.00,-27.00,CLOSED,0
672341.996,3,0,0,1.000,1.000,1.000,-90.00,180.00,-27.00,CLOSED,0
672342.000,3,0,0,1.000,1.000,1.000,-90.00,180.00,-27.00,CLOSED,0
672342.004,3,0,0,1.000,1.000,1.000,-90.00,180.00,-27.00,CLOSED,0
672342.008,3,0,0,1.000,1.000,1.000,-90.00,180.00,-27.00,CLOSED,0
672342.019,3,0,0,1.000,1.000,1.000,-90.00,180.00,-27.00,CLOSED,0
672342.030,3,0,0,1.000,1.000,1.000,-90.00,180.00,-27.00,CLOSED,0
672342.042,3,0,0,1.000,1.000,1.000,-90.00,180.00,-27.00,CLOSED,0
672342.049,3,0,0,1.000,1.000,1.000,-90.00,180.00,-27.00,CLOSED,0
672342.055,3,0,0,1.000,1.000,1.000,-90.00,180.00,-27.00,CLOSED,0
672342.061,3,0,0,1.000,1.000,1.000,-90.00,180.00,-27.00,CLOSED,0
672342.068,3,0,0,1.000,1.000,1.000,-90.00,180.00,-27.00,CLOSED,0
672342.072,3,0,0,1.000,1.000,1.000,-90.00,180.00,-27.00,CLOSED,0
672342.076,3,0,0,1.000,1.000,1.000,-90.00,180.00,-27.00,CLOSED,0
672342.081,3,0,0,1.000,1.000,1.000,-90.00,180.00,-27.00,CLOSED,0
672342.085,3,0,0,1.000,1.000,1.000,-90.00,180.00,-27.00,CLOSED,0
672342.089,3,0,0,1.000,1.000,1.000,-90.00,180.00,-27.00,CLOSED,0
672342.092,3,0,0,1.000,1.000,1.000,-90.00,180.00,-27.00,CLOSED,0
672342.096,3,0,0,1.000,1.000,1.000,-90.00,180.00,-27.00,CLOSED,0
672342.100,3,0,0,1.000,1.000,1.000,-90.00,180.00,-27.00,CLOSED,0
672342.103,3,0,0,1.000,1.000,1.000,-90.00,180.00,-27.00,CLOSED,0
672342.107,3,0,0,1.000,1.000,1.000,-90.00,180.00,-27.00,CLOSED,0
672342.110,3,0,0,1.000,1.000,1.000,-90.00,180.00,-27.00,CLOSED,0
672342.114,3,0,0,1.000,1.000,1.000,-90.00,180.00,-27.00,CLOSED,0
672342.118,3,0,0,1.000,1.000,1.000,-90.00,180.00,-27.00,CLOSED,0
672342.123,3,0,0,1.000,1.000,1.000,-90.00,180.00,-27.00,CLOSED,0
672342.129,3,0,0,1.000,1.000,1.000,-90.00,180.00,-27.00,CLOSED,0
672342.135,3,0,0,1.000,1.000,1.000,-90.00,180.00,-27.00,CLOSED,0
672342.139,3,0,0,1.000,1.000,1.000,-90.00,180.00,-27.00,CLOSED,0
672342.144,3,0,0,1.000,1.000,1.000,-90.00,180.00,-27.00,CLOSED,0
672342.151,3,0,0,1.000,1.000,1.000,-90.00,180.00,-27.00,CLOSED,0
672342.157,3,0,0,1.000,1.000,1.000,-90.00,180.00,-27.00,CLOSED,0
672342.163,3,0,0,1.000,1.000,1.000,-90.00,180.00,-27.00,CLOSED,0
672342.169,3,0,0,1.000,1.000,1.000,-90.00,180.00,-27.00,CLOSED,0
672342.174,3,0,0,1.000,1.000,1.000,-90.00,180.00,-27.00,CLOSED,0
672342.180,3,0,0,1.000,1.000,1.000,-90.00,180.00,-27.00,CLOSED,0
672342.186,3,0,0,1.000,1.000,1.000,-90.00,180.00,-27.00,CLOSED,0
672342.190,3,0,0,1.000,1.000,1.000,-90.00,180.00,-27.00,CLOSED,0
672342.195,3,0,0,1.000,1.000,1.000,-90.00,180.00,-27.00,CLOSED,0
672342.199,3,0,0,1.000,1.000,1.000,-90.00,180.00,-27.00,CLOSED,0
672342.203,3,0,0,1.000,1.000,1.000,-90.00,180.00,-27.00,CLOSED,0
672342.206,3,0,0,1.000,1.000,1.000,-90.00,180.00,-27.00,CLOSED,0
672342.210,3,0,0,1.000,1.000,1.000,-90.00,180.00,-27.00,CLOSED,0
672342.214,3,0,0,1.000,1.000,1.000,-90.00,180.00,-27.00,CLOSED,0
672342.217,3,0,0,1.000,1.000,1.000,-90.00,180.00,-27.00,CLOSED,0
672342.221,3,0,0,1.000,1.000,1.000,-90.00,180.00,-27.00,CLOSED,0
672342.225,3,0,0,1.000,1.000,1.000,-90.00,180.00,-27.00,CLOSED,0
672342.229,3,0,0,1.000,1.000,1.000,-90.00,180.00,-27.00,CLOSED,0
672342.232,3,0,0,1.000,1.000,1.000,-90.00,180.00,-27.00,CLOSED,0
672342.236,3,0,0,1.000,1.000,1.000,-90.00,180.00,-27.00,CLOSED,0
672342.239,3,0,0,1.000,1.000,1.000,-90.00,180.00,-27.00,CLOSED,0
672342.242,3,0,0,1.000,1.000,1.000,-90.00,180.00,-27.00,CLOSED,0
672342.246,3,0,0,1.000,1.000,1.000,-90.00,180.00,-27.00,CLOSED,0
672342.249,3,0,0,1.000,1.000,1.000,-90.00,180.00,-27.00,CLOSED,0
672342.253,3,0,0,1.000,1.000,1.000,-90.00,180.00,-27.00,CLOSED,0
672342.257,3,0,0,1.000,1.000,1.000,-90.00,180.00,-27.00,CLOSED,0
672342.261,3,0,0,1.000,1.000,1.000,-90.00,180.00,-27.00,CLOSED,0
672342.264,3,0,0,1.000,1.000,1.000,-90.00,180.00,-27.00,CLOSED,0
672342.268,3,0,0,1.000,1.000,1.000,-90.00,180.00,-27.00,CLOSED,0
672342.272,3,0,0,1.000,1.000,1.000,-90.00,180.00,-27.00,CLOSED,0
672342.276,3,0,0,1.000,1.000,1.000,-90.00,180.00,-27.00,CLOSED,0
672342.279,3,0,0,1.000,1.000,1.000,-90.00,180.00,-27.00,CLOSED,0
672342.283,3,0,0,1.000,1.000,1.000,-90.00,180.00,-27.00,CLOSED,0
672342.288,3,0,0,1.000,1.000,1.000,-90.00,180.00,-27.00,CLOSED,0
672342.292,3,0,0,1.000,1.000,1.000,-90.00,180.00,-27.00,CLOSED,0
672342.296,3,0,0,1.000,1.000,1.000,-90.00,180.00,-27.00,CLOSED,0
672342.300,3,0,0,1.000,1.000,1.000,-90.00,180.00,-27.00,CLOSED,0
672342.305,3,0,0,1.000,1.000,1.000,-90.00,180.00,-27.00,CLOSED,0
672342.309,3,0,0,1.000,1.000,1.000,-90.00,180.00,-27.00,CLOSED,0
672342.312,3,0,0,1.000,1.000,1.000,-90.00,180.00,-27.00,CLOSED,0
672342.316,3,0,0,1.000,1.000,1.000,-90.00,180.00,-27.00,CLOSED,0
672342.319,3,0,0,1.000,1.000,1.000,-90.00,180.00,-27.00,CLOSED,0
672342.323,3,0,0,1.000,1.000,1.000,-90.00,180.00,-27.00,CLOSED,0
672342.327,3,0,0,1.000,1.000,1.000,-90.00,180.00,-27.00,CLOSED,0
672342.330,3,0,0,1.000,1.000,1.000,-90.00,180.00,-27.00,CLOSED,0
672342.334,3,0,0,1.000,1.000,1.000,-90.00,180.00,-27.00,CLOSED,0
672342.338,3,0,0,1.000,1.000,1.000,-90.00,180.00,-27.00,CLOSED,0
672342.342,3,0,0,1.000,1.000,1.000,-90.00,180.00,-27.00,CLOSED,0
672342.346,3,0,0,1.000,1.000,1.000,-90.00,180.00,-27.00,CLOSED,0
672342.350,3,0,0,1.000,1.000,1.000,-90.00,180.00,-27.00,CLOSED,0
672342.354,3,0,0,1.000,1.000,1.000,-90.00,180.00,-27.00,CLOSED,0
672342.357,3,0,0,1.000,1.000,1.000,-90.00,180.00,-27.00,CLOSED,0
672342.361,3,0,0,1.000,1.000,1.000,-90.00,180.00,-27.00,CLOSED,0
672342.365,3,0,0,1.000,1.000,1.000,-90.00,180.00,-27.00,CLOSED,0
672342.368,3,0,0,1.000,1.000,1.000,-90.00,180.00,-27.00,CLOSED,0
672342.372,3,0,0,1.000,1.000,1.000,-90.00,180.00,-27.00,CLOSED,0
672342.375,3,0,0,1.000,1.000,1.000,-90.00,180.00,-27.00,CLOSED,0
672342.379,3,0,0,1.000,1.000,1.000,-90.00,180.00,-27.00,CLOSED,0
672342.382,3,0,0,1.000,1.000,1.000,-90.00,180.00,-27.00,CLOSED,0
672342.385,3,0,0,1.000,1.000,1.000,-90.00,180.00,-27.00,CLOSED,0
672342.389,3,0,0,1.000,1.000,1.000,-90.00,180.00,-27.00,CLOSED,0
672342.393,3,0,0,1.000,1.000,1.000,-90.00,180.00,-27.00,CLOSED,0
672342.398,3,0,0,1.000,1.000,1.000,-90.00,180.00,-27.00,CLOSED,0
672342.402,3,0,0,1.000,1.000,1.000,-90.00,180.00,-27.00,CLOSED,0
672342.406,3,0,0,1.000,1.000,1.000,-90.00,180.00,-27.00,CLOSED,0
672342.410,3,0,0,1.000,1.000,1.000,-90.00,180.00,-27.00,CLOSED,0
672342.414,3,0,0,1.000,1.000,1.000,-90.00,180.00,-27.00,CLOSED,0
672342.417,3,0,0,1.000,1.000,1.000,-90.00,180.00,-27.00,CLOSED,0
672342.421,3,0,0,0.998,1.000,1.000,-90.00,180.00,-27.00,CLOSED,0
672342.424,3,0,0,0.973,1.000,1.000,-90.00,180.00,-27.00,CLOSED,0
672342.428,3,0,0,0.588,1.000,1.000,-90.00,180.00,-27.00,CLOSED,0
672342.431,3,0,0,1.000,1.000,1.000,-90.00,180.00,-27.00,CLOSED,0
672342.435,3,0,0,1.000,1.000,1.000,-90.00,180.00,-27.00,CLOSED,0
672342.439,3,0,0,1.000,1.000,1.000,-90.00,180.00,-27.00,CLOSED,0
672342.443,3,0,0,1.000,1.000,1.000,-90.00,180.00,-27.00,CLOSED,0
672342.446,3,0,0,1.000,1.000,1.000,-90.00,180.00,-27.00,CLOSED,0
672342.450,3,0,0,1.000,1.000,1.000,-90.00,180.00,-27.00,CLOSED,0
672342.454,3,0,0,1.000,1.000,1.000,-90.00,180.00,-27.00,CLOSED,0
672342.457,0,0,0,1.000,1.000,1.000,-90.00,180.00,-27.00,CLOSED,0
672342.460,0,0,0,1.000,1.000,1.000,-90.00,180.00,-27.00,CLOSED,0
672342.464,0,0,0,1.000,1.000,1.000,-90.00,180.00,-27.00,CLOSED,0
672342.467,0,0,0,1.000,1.000,1.000,-90.00,180.00,-27.00,CLOSED,0
672342.471,0,0,0,1.000,1.000,1.000,-90.00,180.00,-27.00,CLOSED,0
672342.475,0,0,0,1.000,1.000,1.000,-90.00,180.00,-27.00,CLOSED,0
672342.479,0,0,0,1.000,1.000,1.000,-90.00,180.00,-27.00,CLOSED,0
672342.483,0,0,0,1.000,1.000,1.000,-90.00,180.00,-27.00,CLOSED,0
672342.488,0,0,0,1.000,1.000,1.000,-90.00,180.00,-27.00,CLOSED,0
672342.492,0,0,0,1.000,1.000,1.000,-90.00,180.00,-27.00,CLOSED,0
672342.497,0,0,0,1.000,1.000,1.000,-90.00,180.00,-27.00,CLOSED,0
672342.501,0,0,0,1.000,1.000,1.000,-90.00,180.00,-27.00,CLOSED,0
672342.506,0,0,0,1.000,1.000,1.000,-90.00,180.00,-27.00,CLOSED,0
672342.510,0,0,0,1.000,1.000,1.000,-90.00,180.00,-27.00,CLOSED,0
672342.514,0,0,0,1.000,1.000,1.000,-90.00,180.00,-27.00,CLOSED,0
672342.517,0,0,0,1.000,1.000,1.000,-90.00,180.00,-27.00,CLOSED,0
672342.521,0,0,0,1.000,1.000,1.000,-90.00,180.00,-27.00,CLOSED,0
672342.524,0,0,0,1.000,1.000,1.000,-90.00,180.00,-27.00,CLOSED,0
672342.528,0,0,0,1.000,1.000,1.000,-90.00,180.00,-27.00,CLOSED,0
672342.531,0,0,0,1.000,1.000,1.000,-90.00,180.00,-27.00,CLOSED,0
672342.535,0,0,0,1.000,1.000,1.000,-90.00,180.00,-27.00,CLOSED,0
672342.539,0,0,0,1.000,1.000,1.000,-90.00,180.00,-27.00,CLOSED,0
672342.542,0,0,0,1.000,1.000,1.000,-90.00,180.00,-27.00,CLOSED,0
672342.546,0,0,0,1.000,1.000,1.000,-90.00,180.00,-27.00,CLOSED,0
672342.550,0,0,0,1.000,1.000,1.000,-90.00,180.00,-27.00,CLOSED,0
672342.555,0,0,0,1.000,1.000,1.000,-90.00,180.00,-27.00,CLOSED,0
672342.560,0,0,0,1.000,1.000,1.000,-90.00,180.00,-27.00,CLOSED,0
672342.565,0,0,0,1.000,1.000,1.000,-90.00,180.00,-27.00,CLOSED,0
672342.569,0,0,0,1.000,1.000,1.000,-90.00,180.00,-27.00,CLOSED,0
672342.573,0,0,0,1.000,1.000,1.000,-90.00,180.00,-27.00,CLOSED,0
672342.577,0,0,0,1.000,1.000,1.000,-90.00,180.00,-27.00,CLOSED,0
672342.581,0,0,0,1.000,1.000,1.000,-90.00,180.00,-27.00,CLOSED,0
672342.584,0,0,0,1.000,1.000,1.000,-90.00,180.00,-27.00,CLOSED,0
672342.588,0,0,0,1.000,1.000,1.000,-90.00,180.00,-27.00,CLOSED,0
672342.593,0,0,0,1.000,1.000,1.000,-90.00,180.00,-27.00,CLOSED,0
672342.599,0,0,0,1.000,1.000,1.000,-90.00,180.00,-27.00,CLOSED,0
672342.605,0,0,0,1.000,1.000,1.000,-90.00,180.00,-27.00,CLOSED,0
672342.611,0,0,0,1.000,1.000,1.000,-90.00,180.00,-27.00,CLOSED,0
672342.617,0,0,0,1.000,1.000,1.000,-90.00,180.00,-27.00,CLOSED,0
672342.623,0,0,0,1.000,1.000,1.000,-90.00,180.00,-27.00,CLOSED,0
672342.629,0,0,0,1.000,1.000,1.000,-90.00,180.00,-27.00,CLOSED,0
672342.634,0,0,0,1.000,1.000,1.000,-90.00,180.00,-27.00,CLOSED,0
672342.640,0,0,0,1.000,1.000,1.000,-90.00,180.00,-27.00,CLOSED,0
672342.645,0,0,0,1.000,1.000,1.000,-90.00,180.00,-27.00,CLOSED,0
672342.648,0,0,0,1.000,1.000,1.000,-90.00,180.00,-27.00,CLOSED,0
672342.652,0,0,0,1.000,1.000,1.000,-90.00,180.00,-27.00,CLOSED,0
672342.655,0,0,0,1.000,1.000,1.000,-90.00,180.00,-27.00,CLOSED,0
672342.659,0,0,0,1.000,1.000,1.000,-90.00,180.00,-27.00,CLOSED,0
672342.663,0,0,0,1.000,1.000,1.000,-90.00,180.00,-27.00,CLOSED,0
672342.667,0,0,0,1.000,1.000,1.000,-90.00,180.00,-27.00,CLOSED,0
672342.672,0,0,0,1.000,1.000,1.000,-90.00,180.00,-27.00,CLOSED,0
672342.677,0,0,0,1.000,1.000,1.000,-90.00,180.00,-27.00,CLOSED,0
672342.681,0,0,0,1.000,1.000,1.000,-90.00,180.00,-27.00,CLOSED,0
672342.685,0,0,0,1.000,1.000,1.000,-90.00,180.00,-27.00,CLOSED,0
672342.689,0,0,0,1.000,1.000,1.000,-90.00,180.00,-27.00,CLOSED,0
672342.694,0,0,0,1.000,1.000,1.000,-90.00,180.00,-27.00,CLOSED,0
672342.697,0,0,0,1.000,1.000,1.000,-90.00,180.00,-27.00,CLOSED,0
672342.700,0,0,0,1.000,1.000,1.000,-90.00,180.00,-27.00,CLOSED,0
672342.705,0,0,0,1.000,1.000,1.000,-90.00,180.00,-27.00,CLOSED,0
672342.708,0,0,0,1.000,1.000,1.000,-90.00,180.00,-27.00,CLOSED,0
672342.711,0,0,0,1.000,1.000,1.000,-90.00,180.00,-27.00,CLOSED,0
672342.715,0,0,0,1.000,1.000,1.000,-90.00,180.00,-27.00,CLOSED,0
672342.718,0,0,0,1.000,1.000,1.000,-90.00,180.00,-27.00,CLOSED,0
672342.722,0,0,0,1.000,1.000,1.000,-90.00,180.00,-27.00,CLOSED,0
672342.726,0,0,0,1.000,1.000,1.000,-90.00,180.00,-27.00,CLOSED,0
672342.730,0,0,0,1.000,1.000,1.000,-90.00,180.00,-27.00,CLOSED,0
672342.734,0,0,0,1.000,1.000,1.000,-90.00,180.00,-27.00,CLOSED,0
672342.737,0,0,0,1.000,1.000,1.000,-90.00,180.00,-27.00,CLOSED,0
672342.741,0,0,0,1.000,1.000,1.000,-90.00,180.00,-27.00,CLOSED,0
672342.746,0,0,0,1.000,1.000,1.000,-90.00,180.00,-27.00,CLOSED,0
672342.751,0,0,0,1.000,1.000,1.000,-90.00,180.00,-27.00,CLOSED,0
672342.754,0,0,0,1.000,1.000,1.000,-90.00,180.00,-27.00,CLOSED,0
672342.758,0,0,0,1.000,1.000,1.000,-90.00,180.00,-27.00,CLOSED,0
672342.761,0,0,0,1.000,1.000,1.000,-90.00,180.00,-27.00,CLOSED,0
672342.765,0,0,0,1.000,1.000,1.000,-90.00,180.00,-27.00,CLOSED,0
672342.769,0,0,0,1.000,1.000,1.000,-90.00,180.00,-27.00,CLOSED,0
672342.772,0,0,0,1.000,1.000,1.000,-90.00,180.00,-27.00,CLOSED,0
672342.776,0,0,0,1.000,1.000,1.000,-90.00,180.00,-27.00,CLOSED,0
672342.779,0,0,0,1.000,1.000,1.000,-90.00,180.00,-27.00,CLOSED,0
672342.783,0,0,0,1.000,1.000,1.000,-90.00,180.00,-27.00,CLOSED,0
672342.786,0,0,0,1.000,1.000,1.000,-90.00,180.00,-27.00,CLOSED,0
672342.789,0,0,0,1.000,1.000,1.000,-90.00,180.00,-27.00,CLOSED,0
672342.793,0,0,0,1.000,1.000,1.000,-90.00,180.00,-27.00,CLOSED,0
672342.796,0,0,0,1.000,1.000,1.000,-90.00,180.00,-27.00,CLOSED,0
672342.800,0,0,0,1.000,1.000,1.000,-90.00,180.00,-27.00,CLOSED,0
672342.804,0,0,0,1.000,1.000,1.000,-90.00,180.00,-27.00,CLOSED,0
672342.809,0,0,0,1.000,1.000,1.000,-90.00,180.00,-27.00,CLOSED,0
672342.813,0,0,0,1.000,1.000,1.000,-90.00,180.00,-27.00,CLOSED,0
672342.817,0,0,0,1.000,1.000,1.000,-90.00,180.00,-27.00,CLOSED,0
672342.821,0,0,0,1.000,1.000,1.000,-90.00,180.00,-27.00,CLOSED,0
672342.825,0,0,0,1.000,1.000,1.000,-90.00,180.00,-27.00,CLOSED,0
672342.829,0,0,0,1.000,1.000,1.000,-90.00,180.00,-27.00,CLOSED,0
672342.833,0,0,0,1.000,1.000,1.000,-90.00,180.00,-27.00,CLOSED,0
672342.836,0,0,0,1.000,1.000,1.000,-90.00,180.00,-27.00,CLOSED,0
672342.840,0,0,0,1.000,1.000,1.000,-90.00,180.00,-27.00,CLOSED,0
672342.844,0,0,0,1.000,1.000,1.000,-90.00,180.00,-27.00,CLOSED,0
672342.848,0,0,0,1.000,1.000,1.000,-90.00,180.00,-27.00,CLOSED,0
672342.853,0,0,0,1.000,1.000,1.000,-90.00,180.00,-27.00,CLOSED,0
672342.857,0,0,0,1.000,1.000,1.000,-90.00,180.00,-27.00,CLOSED,0
672342.861,0,0,0,1.000,1.000,1.000,-90.00,180.00,-27.00,CLOSED,0
672342.864,0,0,0,1.000,1.000,1.000,-90.00,180.00,-27.00,CLOSED,0
672342.868,0,0,0,1.000,1.000,1.000,-90.00,180.00,-27.00,CLOSED,0
672342.872,0,0,0,1.000,1.000,1.000,-90.00,180.00,-27.00,CLOSED,0
672342.876,0,0,0,1.000,1.000,1.000,-90.00,180.00,-27.00,CLOSED,0
672342.879,0,0,0,1.000,1.000,1.000,-90.00,180.00,-27.00,CLOSED,0
672342.883,0,0,0,1.000,1.000,1.000,-90.00,180.00,-27.00,CLOSED,0
672342.887,0,0,0,1.000,1.000,1.000,-90.00,180.00,-27.00,CLOSED,0
672342.891,0,0,0,1.000,1.000,1.000,-90.00,180.00,-27.00,CLOSED,0
672342.895,0,0,0,1.000,1.000,1.000,-90.00,180.00,-27.00,CLOSED,0
672342.899,0,0,0,1.000,1.000,1.000,-90.00,180.00,-27.00,CLOSED,0
672342.903,0,0,0,1.000,1.000,1.000,-90.00,180.00,-27.00,CLOSED,0
672342.907,0,0,0,1.000,1.000,1.000,-90.00,180.00,-27.00,CLOSED,0
672342.910,0,0,0,1.000,1.000,1.000,-90.00,180.00,-27.00,CLOSED,0
672342.914,0,0,0,1.000,1.000,1.000,-90.00,180.00,-27.00,CLOSED,0
672342.917,0,0,0,1.000,1.000,1.000,-90.00,180.00,-27.00,CLOSED,0
672342.921,0,0,0,1.000,1.000,1.000,-90.00,180.00,-27.00,CLOSED,0
672342.924,0,0,0,1.000,1.000,1.000,-90.00,180.00,-27.00,CLOSED,0
672342.928,0,0,0,1.000,1.000,1.000,-90.00,180.00,-27.00,CLOSED,0
672342.933,0,0,0,1.000,1.000,1.000,-90.00,180.00,-27.00,CLOSED,0
672342.939,0,0,0,1.000,1.000,1.000,-90.00,180.00,-27.00,CLOSED,0
672342.945,0,0,0,1.000,1.000,1.000,-90.00,180.00,-27.00,CLOSED,0
672342.951,0,0,0,1.000,1.000,1.000,-90.00,180.00,-27.00,CLOSED,0
672342.956,0,0,0,1.000,1.000,1.000,-90.00,180.00,-27.00,CLOSED,0
672342.961,0,0,0,1.000,1.000,1.000,-90.00,180.00,-27.00,CLOSED,0
672342.965,0,0,0,1.000,1.000,1.000,-90.00,180.00,-27.00,CLOSED,0
672342.970,0,0,0,1.000,1.000,1.000,-90.00,180.00,-27.00,CLOSED,0
672342.975,0,0,0,1.000,1.000,1.000,-90.00,180.00,-27.00,CLOSED,0
672342.979,0,0,0,1.000,1.000,1.000,-90.00,180.00,-27.00,CLOSED,0
672342.983,0,0,0,1.000,1.000,1.000,-90.00,180.00,-27.00,CLOSED,0
672342.987,0,0,0,1.000,1.000,1.000,-90.00,180.00,-27.00,CLOSED,0
672342.990,0,0,0,1.000,1.000,1.000,-90.00,180.00,-27.00,CLOSED,0
672342.993,0,0,0,1.000,1.000,1.000,-90.00,180.00,-27.00,CLOSED,0
672342.996,0,0,0,1.000,1.000,1.000,-90.00,180.00,-27.00,CLOSED,0
672343.000,0,0,0,1.000,1.000,1.000,-90.00,180.00,-27.00,CLOSED,0
672343.004,0,0,0,1.000,1.000,1.000,-90.00,180.00,-27.00,CLOSED,0
672343.007,0,0,0,1.000,1.000,1.000,-90.00,180.00,-27.00,CLOSED,0
672343.011,0,0,0,0.998,1.000,1.000,-90.00,180.00,-27.00,CLOSED,0
672343.015,0,0,0,0.993,0.998,1.000,-90.00,180.00,-27.00,CLOSED,0
672343.019,0,0,0,0.980,0.978,1.000,-90.00,180.00,-27.00,CLOSED,0
672343.022,0,0,0,0.972,0.957,1.000,-90.00,180.00,-27.00,CLOSED,0
672343.026,0,0,0,0.958,1.000,1.000,-90.00,180.00,-27.00,CLOSED,0
672343.030,0,0,0,0.881,1.000,1.000,-90.00,180.00,-27.00,CLOSED,0
672343.033,0,0,0,0.600,1.000,1.000,-90.00,180.00,-27.00,CLOSED,0
672343.037,0,0,0,0.496,1.000,1.000,-90.00,180.00,-27.00,CLOSED,0
672343.041,0,0,0,0.629,1.000,1.000,-90.00,180.00,-27.00,CLOSED,0
672343.044,0,0,0,0.832,1.000,1.000,-90.00,180.00,-27.00,CLOSED,0
672343.048,0,0,0,0.889,1.000,1.000,-90.00,180.00,-27.00,CLOSED,0
672343.053,0,0,0,0.903,1.000,1.000,-90.00,180.00,-27.00,CLOSED,0
672343.056,0,0,0,0.939,1.000,1.000,-90.00,180.00,-27.00,CLOSED,0
672343.060,0,0,0,0.955,1.000,1.000,-90.00,180.00,-27.00,CLOSED,0
672343.064,0,0,0,0.949,1.000,1.000,-90.00,180.00,-27.00,CLOSED,0
672343.068,2,0,0,0.898,1.000,1.000,-90.00,180.00,-31.50,CLOSED,1
672343.073,2,0,0,0.730,1.000,1.000,-90.00,180.00,-31.50,CLOSED,0
672343.077,2,0,0,0.525,1.000,1.000,-90.00,180.00,-31.50,CLOSED,0
672343.081,2,0,0,0.780,1.000,1.000,-90.00,180.00,-31.50,CLOSED,0
672343.084,2,0,0,0.922,1.000,1.000,-90.00,180.00,-31.50,CLOSED,0
672343.088,2,0,0,0.972,1.000,1.000,-90.00,180.00,-31.50,CLOSED,0
672343.091,2,0,0,0.987,1.000,1.000,-90.00,180.00,-31.50,CLOSED,0
672343.095,2,0,0,0.993,1.000,1.000,-90.00,180.00,-31.50,CLOSED,0
672343.100,2,0,0,0.996,1.000,1.000,-90.00,180.00,-31.50,CLOSED,0
672343.104,2,0,0,0.997,1.000,1.000,-90.00,180.00,-31.50,CLOSED,0
672343.109,0,0,0,0.998,1.000,1.000,-90.00,180.00,-31.50,CLOSED,0
672343.113,0,0,0,0.998,1.000,1.000,-90.00,180.00,-31.50,CLOSED,0
672343.117,0,0,0,0.998,1.000,1.000,-90.00,180.00,-31.50,CLOSED,0
672343.121,0,0,0,0.998,1.000,1.000,-90.00,180.00,-31.50,CLOSED,0
672343.125,0,0,0,1.000,1.000,1.000,-90.00,180.00,-31.50,CLOSED,0
672343.128,0,0,0,1.000,1.000,1.000,-90.00,180.00,-31.50,CLOSED,0
672343.132,0,0,0,1.000,1.000,1.000,-90.00,180.00,-31.50,CLOSED,0
672343.135,0,0,0,1.000,1.000,1.000,-90.00,180.00,-31.50,CLOSED,0
672343.139,0,0,0,1.000,1.000,1.000,-90.00,180.00,-31.50,CLOSED,0
672343.142,0,0,0,1.000,1.000,1.000,-90.00,180.00,-31.50,CLOSED,0
672343.146,0,0,0,1.000,1.000,1.000,-90.00,180.00,-31.50,CLOSED,0
672343.149,0,0,0,1.000,1.000,1.000,-90.00,180.00,-31.50,CLOSED,0
672343.153,0,0,0,1.000,1.000,1.000,-90.00,180.00,-31.50,CLOSED,0
672343.158,0,0,0,1.000,1.000,1.000,-90.00,180.00,-31.50,CLOSED,0
672343.161,0,0,0,1.000,1.000,1.000,-90.00,180.00,-31.50,CLOSED,0
672343.165,0,0,0,1.000,1.000,1.000,-90.00,180.00,-31.50,CLOSED,0
672343.169,0,0,0,1.000,1.000,1.000,-90.00,180.00,-31.50,CLOSED,0
672343.173,0,0,0,1.000,1.000,1.000,-90.00,180.00,-31.50,CLOSED,0
672343.176,0,0,0,1.000,1.000,1.000,-90.00,180.00,-31.50,CLOSED,0
672343.179,0,0,0,1.000,1.000,1.000,-90.00,180.00,-31.50,CLOSED,0
672343.183,0,0,0,1.000,1.000,1.000,-90.00,180.00,-31.50,CLOSED,0
672343.187,0,0,0,1.000,1.000,1.000,-90.00,180.00,-31.50,CLOSED,0
672343.190,0,0,0,1.000,1.000,1.000,-90.00,180.00,-31.50,CLOSED,0
672343.194,0,0,0,1.000,1.000,1.000,-90.00,180.00,-31.50,CLOSED,0
672343.198,0,0,0,1.000,1.000,1.000,-90.00,180.00,-31.50,CLOSED,0
672343.202,0,0,0,1.000,1.000,1.000,-90.00,180.00,-31.50,CLOSED,0
672343.206,0,0,0,1.000,1.000,1.000,-90.00,180.00,-31.50,CLOSED,0
672343.209,0,0,0,1.000,1.000,1.000,-90.00,180.00,-31.50,CLOSED,0
672343.212,0,0,0,1.000,1.000,1.000,-90.00,180.00,-31.50,CLOSED,0
672343.216,0,0,0,1.000,1.000,1.000,-90.00,180.00,-31.50,CLOSED,0
672343.220,0,0,0,1.000,1.000,1.000,-90.00,180.00,-31.50,CLOSED,0
672343.223,0,0,0,1.000,1.000,1.000,-90.00,180.00,-31.50,CLOSED,0
672343.227,0,0,0,1.000,1.000,1.000,-90.00,180.00,-31.50,CLOSED,0
672343.230,0,0,0,1.000,1.000,1.000,-90.00,180.00,-31.50,CLOSED,0
672343.234,0,0,0,1.000,1.000,1.000,-90.00,180.00,-31.50,CLOSED,0
672343.238,0,0,0,1.000,1.000,1.000,-90.00,180.00,-31.50,CLOSED,0
672343.242,0,0,0,1.000,1.000,1.000,-90.00,180.00,-31.50,CLOSED,0
672343.246,0,0,0,1.000,1.000,1.000,-90.00,180.00,-31.50,CLOSED,0
672343.250,0,0,0,1.000,1.000,1.000,-90.00,180.00,-31.50,CLOSED,0
672343.254,0,0,0,1.000,1.000,1.000,-90.00,180.00,-31.50,CLOSED,0
672343.258,0,0,0,1.000,1.000,1.000,-90.00,180.00,-31.50,CLOSED,0
672343.261,0,0,0,1.000,1.000,1.000,-90.00,180.00,-31.50,CLOSED,0
672343.265,0,0,0,1.000,1.000,1.000,-90.00,180.00,-31.50,CLOSED,0
672343.270,0,0,0,1.000,1.000,1.000,-90.00,180.00,-31.50,CLOSED,0
672343.273,0,0,0,1.000,1.000,1.000,-90.00,180.00,-31.50,CLOSED,0
672343.277,0,0,0,1.000,1.000,1.000,-90.00,180.00,-31.50,CLOSED,0
672343.281,0,0,0,1.000,1.000,1.000,-90.00,180.00,-31.50,CLOSED,0
672343.285,0,0,0,1.000,1.000,1.000,-90.00,180.00,-31.50,CLOSED,0
672343.288,0,0,0,1.000,1.000,1.000,-90.00,180.00,-31.50,CLOSED,0
672343.292,0,0,0,1.000,1.000,1.000,-90.00,180.00,-31.50,CLOSED,0
672343.297,0,0,0,1.000,1.000,1.000,-90.00,180.00,-31.50,CLOSED,0
672343.301,0,0,0,1.000,1.000,1.000,-90.00,180.00,-31.50,CLOSED,0
672343.305,0,0,0,1.000,1.000,1.000,-90.00,180.00,-31.50,CLOSED,0
672343.310,0,0,0,1.000,1.000,1.000,-90.00,180.00,-31.50,CLOSED,0
672343.315,0,0,0,1.000,1.000,1.000,-90.00,180.00,-31.50,CLOSED,0
672343.321,0,0,0,1.000,1.000,1.000,-90.00,180.00,-31.50,CLOSED,0
672343.326,0,0,0,1.000,1.000,1.000,-90.00,180.00,-31.50,CLOSED,0
672343.331,0,0,0,1.000,1.000,1.000,-90.00,180.00,-31.50,CLOSED,0
672343.335,0,0,0,1.000,1.000,1.000,-90.00,180.00,-31.50,CLOSED,0
672343.339,0,0,0,1.000,1.000,1.000,-90.00,180.00,-31.50,CLOSED,0
672343.343,0,0,0,1.000,1.000,1.000,-90.00,180.00,-31.50,CLOSED,0
672343.347,0,0,0,1.000,1.000,1.000,-90.00,180.00,-31.50,CLOSED,0
672343.350,0,0,0,1.000,1.000,1.000,-90.00,180.00,-31.50,CLOSED,0
672343.354,0,0,0,1.000,1.000,1.000,-90.00,180.00,-31.50,CLOSED,0
672343.358,0,0,0,1.000,1.000,1.000,-90.00,180.00,-31.50,CLOSED,0
672343.363,0,0,0,1.000,1.000,1.000,-90.00,180.00,-31.50,CLOSED,0
672343.367,0,0,0,1.000,1.000,1.000,-90.00,180.00,-31.50,CLOSED,0
672343.371,0,0,0,1.000,1.000,1.000,-90.00,180.00,-31.50,CLOSED,0
672343.377,0,0,0,1.000,1.000,1.000,-90.00,180.00,-31.50,CLOSED,0
672343.384,0,0,0,1.000,1.000,1.000,-90.00,180.00,-31.50,CLOSED,0
672343.389,0,0,0,1.000,1.000,1.000,-90.00,180.00,-31.50,CLOSED,0
672343.394,0,0,0,1.000,1.000,1.000,-90.00,180.00,-31.50,CLOSED,0
672343.399,0,0,0,1.000,1.000,1.000,-90.00,180.00,-31.50,CLOSED,0
672343.404,0,0,0,1.000,1.000,1.000,-90.00,180.00,-31.50,CLOSED,0
672343.409,0,0,0,1.000,1.000,1.000,-90.00,180.00,-31.50,CLOSED,0
672343.414,0,0,0,1.000,1.000,1.000,-90.00,180.00,-31.50,CLOSED,0
672343.418,0,0,0,1.000,1.000,1.000,-90.00,180.00,-31.50,CLOSED,0
672343.423,0,0,0,1.000,1.000,1.000,-90.00,180.00,-31.50,CLOSED,0
672343.427,0,0,0,1.000,1.000,1.000,-90.00,180.00,-31.50,CLOSED,0
672343.432,0,0,0,1.000,1.000,1.000,-90.00,180.00,-31.50,CLOSED,0
672343.436,0,0,0,1.000,1.000,1.000,-90.00,180.00,-31.50,CLOSED,0
672343.440,0,0,0,1.000,1.000,1.000,-90.00,180.00,-31.50,CLOSED,0
672343.443,0,0,0,1.000,1.000,1.000,-90.00,180.00,-31.50,CLOSED,0
672343.446,0,0,0,1.000,1.000,1.000,-90.00,180.00,-31.50,CLOSED,0
672343.450,0,0,0,1.000,1.000,1.000,-90.00,180.00,-31.50,CLOSED,0
672343.454,0,0,0,1.000,1.000,1.000,-90.00,180.00,-31.50,CLOSED,0
672343.457,0,0,0,1.000,1.000,1.000,-90.00,180.00,-31.50,CLOSED,0
672343.461,0,0,0,1.000,1.000,1.000,-90.00,180.00,-31.50,CLOSED,0
672343.464,0,0,0,1.000,1.000,1.000,-90.00,180.00,-31.50,CLOSED,0
672343.468,0,0,0,1.000,1.000,1.000,-90.00,180.00,-31.50,CLOSED,0
672343.472,0,0,0,1.000,1.000,1.000,-90.00,180.00,-31.50,CLOSED,0
672343.476,0,0,0,1.000,1.000,1.000,-90.00,180.00,-31.50,CLOSED,0
672343.481,0,0,0,1.000,1.000,1.000,-90.00,180.00,-31.50,CLOSED,0
672343.485,0,0,0,1.000,1.000,1.000,-90.00,180.00,-31.50,CLOSED,0
672343.489,0,0,0,1.000,0.993,1.000,-90.00,180.00,-31.50,CLOSED,0
672343.492,0,0,0,1.000,0.947,1.000,-90.00,180.00,-31.50,CLOSED,0
672343.496,0,0,0,1.000,0.842,1.000,-90.00,180.00,-31.50,CLOSED,0
672343.499,0,0,0,1.000,0.684,1.000,-90.00,180.00,-31.50,CLOSED,0
672343.503,0,0,0,1.000,0.748,1.000,-90.00,180.00,-31.50,CLOSED,0
672343.507,0,0,0,1.000,0.994,1.000,-90.00,180.00,-31.50,CLOSED,0
672343.510,0,0,0,1.000,1.000,1.000,-90.00,180.00,-31.50,CLOSED,0
672343.514,0,0,0,1.000,1.000,1.000,-90.00,180.00,-31.50,CLOSED,0
672343.517,0,0,0,1.000,1.000,1.000,-90.00,180.00,-31.50,CLOSED,0
672343.521,0,0,0,1.000,1.000,1.000,-90.00,180.00,-31.50,CLOSED,0
672343.525,0,0,0,1.000,1.000,1.000,-90.00,180.00,-31.50,CLOSED,0
672343.530,0,0,0,1.000,1.000,1.000,-90.00,180.00,-31.50,CLOSED,0
672343.534,0,0,0,1.000,1.000,1.000,-90.00,180.00,-31.50,CLOSED,0
672343.538,0,0,0,1.000,1.000,1.000,-90.00,180.00,-31.50,CLOSED,0
672343.542,0,0,0,1.000,1.000,1.000,-90.00,180.00,-31.50,CLOSED,0
672343.546,0,0,0,1.000,1.000,1.000,-90.00,180.00,-31.50,CLOSED,0
672343.549,0,0,0,1.000,1.000,1.000,-90.00,180.00,-31.50,CLOSED,0
672343.554,0,0,0,1.000,1.000,1.000,-90.00,180.00,-31.50,CLOSED,0
672343.558,0,0,0,1.000,1.000,1.000,-90.00,180.00,-31.50,CLOSED,0
672343.561,0,0,0,1.000,1.000,1.000,-90.00,180.00,-31.50,CLOSED,0
672343.564,0,0,0,1.000,1.000,1.000,-90.00,180.00,-31.50,CLOSED,0
672343.568,0,0,0,1.000,1.000,1.000,-90.00,180.00,-31.50,CLOSED,0
672343.572,0,0,0,1.000,1.000,1.000,-90.00,180.00,-31.50,CLOSED,0
672343.576,0,0,0,1.000,1.000,1.000,-90.00,180.00,-31.50,CLOSED,0
672343.580,0,0,0,1.000,1.000,1.000,-90.00,180.00,-31.50,CLOSED,0
672343.584,0,0,0,1.000,1.000,1.000,-90.00,180.00,-31.50,CLOSED,0
672343.587,0,0,0,1.000,1.000,1.000,-90.00,180.00,-31.50,CLOSED,0
672343.591,0,0,0,1.000,1.000,1.000,-90.00,180.00,-31.50,CLOSED,0
672343.595,0,0,0,1.000,1.000,1.000,-90.00,180.00,-31.50,CLOSED,0
672343.599,0,0,0,1.000,1.000,1.000,-90.00,180.00,-31.50,CLOSED,0
672343.604,0,0,0,1.000,1.000,1.000,-90.00,180.00,-31.50,CLOSED,0
672343.607,0,0,0,1.000,1.000,1.000,-90.00,180.00,-31.50,CLOSED,0
672343.611,0,0,0,1.000,1.000,1.000,-90.00,180.00,-31.50,CLOSED,0
672343.615,0,0,0,1.000,1.000,1.000,-90.00,180.00,-31.50,CLOSED,0
672343.619,0,0,0,1.000,1.000,1.000,-90.00,180.00,-31.50,CLOSED,0
672343.623,0,0,0,1.000,1.000,1.000,-90.00,180.00,-31.50,CLOSED,0
672343.628,0,0,0,1.000,1.000,1.000,-90.00,180.00,-31.50,CLOSED,0
672343.637,0,0,0,1.000,1.000,1.000,-90.00,180.00,-31.50,CLOSED,0
672343.645,0,0,0,1.000,1.000,1.000,-90.00,180.00,-31.50,CLOSED,0
672343.651,0,0,0,1.000,1.000,1.000,-90.00,180.00,-31.50,CLOSED,0
672343.658,0,0,0,1.000,1.000,1.000,-90.00,180.00,-31.50,CLOSED,0
672343.666,0,0,0,1.000,1.000,1.000,-90.00,180.00,-31.50,CLOSED,0
672343.671,0,0,0,1.000,1.000,1.000,-90.00,180.00,-31.50,CLOSED,0
672343.680,0,0,0,1.000,1.000,1.000,-90.00,180.00,-31.50,CLOSED,0
672343.684,0,0,0,1.000,1.000,1.000,-90.00,180.00,-31.50,CLOSED,0
672343.688,0,0,0,1.000,1.000,1.000,-90.00,180.00,-31.50,CLOSED,0
672343.692,0,0,0,1.000,1.000,1.000,-90.00,180.00,-31.50,CLOSED,0
672343.696,0,0,0,1.000,1.000,1.000,-90.00,180.00,-31.50,CLOSED,0
672343.699,0,0,0,1.000,1.000,1.000,-90.00,180.00,-31.50,CLOSED,0
672343.703,0,0,0,1.000,1.000,1.000,-90.00,180.00,-31.50,CLOSED,0
672343.706,0,0,0,1.000,1.000,1.000,-90.00,180.00,-31.50,CLOSED,0
672343.710,0,0,0,1.000,1.000,1.000,-90.00,180.00,-31.50,CLOSED,0
672343.714,0,0,0,1.000,1.000,1.000,-90.00,180.00,-31.50,CLOSED,0
672343.718,0,0,0,1.000,1.000,1.000,-90.00,180.00,-31.50,CLOSED,0
672343.722,0,0,0,1.000,1.000,1.000,-90.00,180.00,-31.50,CLOSED,0
672343.725,0,0,0,1.000,1.000,1.000,-90.00,180.00,-31.50,CLOSED,0
672343.729,0,0,0,1.000,1.000,1.000,-90.00,180.00,-31.50,CLOSED,0
672343.733,0,0,0,1.000,1.000,1.000,-90.00,180.00,-31.50,CLOSED,0
672343.736,0,0,0,1.000,1.000,1.000,-90.00,180.00,-31.50,CLOSED,0
672343.740,0,0,0,1.000,1.000,1.000,-90.00,180.00,-31.50,CLOSED,0
672343.744,0,0,0,1.000,1.000,1.000,-90.00,180.00,-31.50,CLOSED,0
672343.747,0,0,0,1.000,1.000,1.000,-90.00,180.00,-31.50,CLOSED,0
672343.751,0,0,0,1.000,1.000,1.000,-90.00,180.00,-31.50,CLOSED,0
672343.755,0,0,0,1.000,1.000,1.000,-90.00,180.00,-31.50,CLOSED,0
672343.759,0,0,0,1.000,1.000,1.000,-90.00,180.00,-31.50,CLOSED,0
672343.764,0,0,0,1.000,1.000,1.000,-90.00,180.00,-31.50,CLOSED,0
672343.768,0,0,0,1.000,1.000,1.000,-90.00,180.00,-31.50,CLOSED,0
672343.772,0,0,0,1.000,1.000,1.000,-90.00,180.00,-31.50,CLOSED,0
672343.776,0,0,0,1.000,1.000,1.000,-90.00,180.00,-31.50,CLOSED,0
672343.779,0,0,0,1.000,1.000,1.000,-90.00,180.00,-31.50,CLOSED,0
672343.783,0,0,0,1.000,1.000,1.000,-90.00,180.00,-31.50,CLOSED,0
672343.787,0,0,0,1.000,1.000,1.000,-90.00,180.00,-31.50,CLOSED,0
672343.790,0,0,0,1.000,1.000,1.000,-90.00,180.00,-31.50,CLOSED,0
672343.794,0,0,0,1.000,1.000,1.000,-90.00,180.00,-31.50,CLOSED,0
672343.797,0,0,0,1.000,1.000,1.000,-90.00,180.00,-31.50,CLOSED,0
672343.801,0,0,0,1.000,1.000,1.000,-90.00,180.00,-31.50,CLOSED,0
672343.805,0,0,0,1.000,1.000,1.000,-90.00,180.00,-31.50,CLOSED,0
672343.809,0,0,0,1.000,1.000,1.000,-90.00,180.00,-31.50,CLOSED,0
672343.813,0,0,0,1.000,1.000,1.000,-90.00,180.00,-31.50,CLOSED,0
672343.817,0,0,0,1.000,1.000,1.000,-90.00,180.00,-31.50,CLOSED,0
672343.821,0,0,0,1.000,1.000,1.000,-90.00,180.00,-31.50,CLOSED,0
672343.824,0,0,0,1.000,1.000,1.000,-90.00,180.00,-31.50,CLOSED,0
672343.828,0,0,0,1.000,1.000,1.000,-90.00,180.00,-31.50,CLOSED,0
672343.832,0,0,0,1.000,1.000,1.000,-90.00,180.00,-31.50,CLOSED,0
672343.836,0,0,0,1.000,1.000,1.000,-90.00,180.00,-31.50,CLOSED,0
672343.839,0,0,0,1.000,1.000,1.000,-90.00,180.00,-31.50,CLOSED,0
672343.842,0,0,0,1.000,1.000,1.000,-90.00,180.00,-31.50,CLOSED,0
672343.846,0,0,0,1.000,1.000,1.000,-90.00,180.00,-31.50,CLOSED,0
672343.850,0,0,0,1.000,1.000,1.000,-90.00,180.00,-31.50,CLOSED,0
672343.854,0,0,0,1.000,1.000,1.000,-90.00,180.00,-31.50,CLOSED,0
672343.858,0,0,0,1.000,1.000,1.000,-90.00,180.00,-31.50,CLOSED,0
672343.862,0,0,0,1.000,1.000,1.000,-90.00,180.00,-31.50,CLOSED,0
672343.866,0,0,0,1.000,1.000,1.000,-90.00,180.00,-31.50,CLOSED,0
672343.870,0,0,0,1.000,1.000,1.000,-90.00,180.00,-31.50,CLOSED,0
672343.875,0,0,0,1.000,1.000,1.000,-90.00,180.00,-31.50,CLOSED,0
672343.881,0,0,0,1.000,1.000,1.000,-90.00,180.00,-31.50,CLOSED,0
672343.885,0,0,0,1.000,1.000,1.000,-90.00,180.00,-31.50,CLOSED,0
672343.889,0,0,0,1.000,1.000,1.000,-90.00,180.00,-31.50,CLOSED,0
672343.893,0,0,0,1.000,1.000,1.000,-90.00,180.00,-31.50,CLOSED,0
672343.897,0,0,0,1.000,1.000,1.000,-90.00,180.00,-31.50,CLOSED,0
672343.900,0,0,0,1.000,1.000,1.000,-90.00,180.00,-31.50,CLOSED,0
672343.904,0,0,0,1.000,1.000,1.000,-90.00,180.00,-31.50,CLOSED,0
672343.908,0,0,0,1.000,1.000,1.000,-90.00,180.00,-31.50,CLOSED,0
672343.911,0,0,0,1.000,1.000,1.000,-90.00,180.00,-31.50,CLOSED,0
672343.915,0,0,0,1.000,1.000,1.000,-90.00,180.00,-31.50,CLOSED,0
672343.919,0,0,0,1.000,1.000,1.000,-90.00,180.00,-31.50,CLOSED,0
672343.923,0,0,0,1.000,1.000,1.000,-90.00,180.00,-31.50,CLOSED,0
672343.927,0,0,0,1.000,1.000,1.000,-90.00,180.00,-31.50,CLOSED,0
672343.931,0,0,0,1.000,1.000,1.000,-90.00,180.00,-31.50,CLOSED,0
672343.934,0,0,0,1.000,1.000,1.000,-90.00,180.00,-31.50,CLOSED,0
672343.938,0,0,0,1.000,1.000,1.000,-90.00,180.00,-31.50,CLOSED,0
672343.941,0,0,0,1.000,1.000,1.000,-90.00,180.00,-31.50,CLOSED,0
672343.945,0,0,0,1.000,1.000,1.000,-90.00,180.00,-31.50,CLOSED,0
672343.949,0,0,0,1.000,1.000,1.000,-90.00,180.00,-31.50,CLOSED,0
672343.953,0,0,0,1.000,1.000,1.000,-90.00,180.00,-31.50,CLOSED,0
672343.957,0,0,0,1.000,1.000,1.000,-90.00,180.00,-31.50,CLOSED,0
672343.961,0,0,0,1.000,1.000,1.000,-90.00,180.00,-31.50,CLOSED,0
672343.965,0,0,0,1.000,1.000,1.000,-90.00,180.00,-31.50,CLOSED,0
672343.971,0,0,0,1.000,1.000,1.000,-90.00,180.00,-31.50,CLOSED,0
672343.975,0,0,0,1.000,1.000,1.000,-90.00,180.00,-31.50,CLOSED,0
672343.979,0,0,0,1.000,1.000,1.000,-90.00,180.00,-31.50,CLOSED,0
672343.983,0,0,0,1.000,1.000,1.000,-90.00,180.00,-31.50,CLOSED,0
672343.987,0,0,0,1.000,1.000,1.000,-90.00,180.00,-31.50,CLOSED,0
672343.992,0,0,0,1.000,1.000,1.000,-90.00,180.00,-31.50,CLOSED,0
672343.997,0,0,0,1.000,1.000,1.000,-90.00,180.00,-31.50,CLOSED,0
672344.003,0,0,0,1.000,1.000,1.000,-90.00,180.00,-31.50,CLOSED,0
672344.007,0,0,0,1.000,1.000,1.000,-90.00,180.00,-31.50,CLOSED,0
672344.010,0,0,0,1.000,1.000,1.000,-90.00,180.00,-31.50,CLOSED,0
672344.014,0,0,0,1.000,1.000,1.000,-90.00,180.00,-31.50,CLOSED,0
672344.017,0,0,0,1.000,1.000,1.000,-90.00,180.00,-31.50,CLOSED,0
672344.021,0,0,0,1.000,1.000,1.000,-90.00,180.00,-31.50,CLOSED,0
672344.025,0,0,0,1.000,1.000,1.000,-90.00,180.00,-31.50,CLOSED,0
672344.029,0,0,0,1.000,1.000,1.000,-90.00,180.00,-31.50,CLOSED,0
672344.033,0,0,0,1.000,1.000,1.000,-90.00,180.00,-31.50,CLOSED,0
672344.037,0,0,0,1.000,1.000,1.000,-90.00,180.00,-31.50,CLOSED,0
672344.040,0,0,0,1.000,1.000,1.000,-90.00,180.00,-31.50,CLOSED,0
672344.045,0,0,0,1.000,1.000,1.000,-90.00,180.00,-31.50,CLOSED,0
672344.049,0,0,0,1.000,1.000,1.000,-90.00,180.00,-31.50,CLOSED,0
672344.054,0,0,0,1.000,1.000,1.000,-90.00,180.00,-31.50,CLOSED,0
672344.058,0,0,0,1.000,1.000,1.000,-90.00,180.00,-31.50,CLOSED,0
672344.062,0,0,0,1.000,1.000,1.000,-90.00,180.00,-31.50,CLOSED,0
672344.066,0,0,0,1.000,1.000,1.000,-90.00,180.00,-31.50,CLOSED,0
672344.070,0,0,0,1.000,1.000,1.000,-90.00,180.00,-31.50,CLOSED,0
672344.074,0,0,0,1.000,1.000,1.000,-90.00,180.00,-31.50,CLOSED,0
672344.080,0,0,0,1.000,1.000,1.000,-90.00,180.00,-31.50,CLOSED,0
672344.085,0,0,0,1.000,1.000,1.000,-90.00,180.00,-31.50,CLOSED,0
672344.089,0,0,0,1.000,1.000,1.000,-90.00,180.00,-31.50,CLOSED,0
672344.092,0,0,0,1.000,1.000,1.000,-90.00,180.00,-31.50,CLOSED,0
672344.096,0,0,0,1.000,1.000,1.000,-90.00,180.00,-31.50,CLOSED,0
672344.100,0,0,0,1.000,1.000,1.000,-90.00,180.00,-31.50,CLOSED,0
672344.105,0,0,0,1.000,1.000,1.000,-90.00,180.00,-31.50,CLOSED,0
672344.108,0,0,0,1.000,1.000,1.000,-90.00,180.00,-31.50,CLOSED,0
672344.113,0,0,0,1.000,1.000,1.000,-90.00,180.00,-31.50,CLOSED,0
672344.117,0,0,0,1.000,1.000,1.000,-90.00,180.00,-31.50,CLOSED,0
672344.121,0,0,0,1.000,1.000,0.999,-90.00,180.00,-31.50,CLOSED,0
672344.125,0,0,0,0.999,1.000,0.990,-90.00,180.00,-31.50,CLOSED,0
672344.131,0,0,0,0.999,1.000,0.947,-90.00,180.00,-31.50,CLOSED,0
672344.136,0,0,0,1.000,0.997,0.840,-90.00,180.00,-31.50,CLOSED,0
672344.141,0,0,0,1.000,0.948,0.678,-90.00,180.00,-31.50,CLOSED,0
672344.145,0,0,0,1.000,0.754,0.528,-90.00,180.00,-31.50,CLOSED,0
672344.149,0,0,0,1.000,0.996,0.731,-90.00,180.00,-31.50,CLOSED,0
672344.154,0,0,0,0.999,1.000,0.896,-90.00,180.00,-31.50,CLOSED,0
672344.158,0,0,0,0.992,1.000,0.980,-90.00,180.00,-31.50,CLOSED,0
672344.161,0,0,0,0.981,1.000,0.996,-90.00,180.00,-31.50,CLOSED,0
672344.165,0,0,0,0.999,1.000,0.999,-90.00,180.00,-31.50,CLOSED,0
672344.171,0,0,0,1.000,1.000,1.000,-90.00,180.00,-31.50,CLOSED,0
672344.175,0,0,0,1.000,1.000,1.000,-90.00,180.00,-31.50,CLOSED,0
672344.179,0,0,0,1.000,1.000,1.000,-90.00,180.00,-31.50,CLOSED,0
672344.183,0,0,0,1.000,1.000,1.000,-90.00,180.00,-31.50,CLOSED,0
672344.188,0,0,0,1.000,1.000,1.000,-90.00,180.00,-31.50,CLOSED,0
672344.192,0,0,0,1.000,1.000,1.000,-90.00,180.00,-31.50,CLOSED,0
672344.198,0,0,0,1.000,1.000,1.000,-90.00,180.00,-31.50,CLOSED,0
672344.204,0,0,0,1.000,1.000,1.000,-90.00,180.00,-31.50,CLOSED,0
672344.208,0,0,0,1.000,1.000,1.000,-90.00,180.00,-31.50,CLOSED,0
672344.212,0,0,0,0.999,1.000,1.000,-90.00,180.00,-31.50,CLOSED,0
672344.216,0,0,0,0.995,1.000,1.000,-90.00,180.00,-31.50,CLOSED,0
672344.220,0,0,0,0.990,1.000,1.000,-90.00,180.00,-31.50,CLOSED,0
672344.224,0,0,0,1.000,0.969,1.000,-90.00,180.00,-31.50,CLOSED,0
672344.227,0,0,0,1.000,0.991,1.000,-90.00,180.00,-31.50,CLOSED,0
672344.231,0,0,0,1.000,1.000,1.000,-90.00,180.00,-31.50,CLOSED,0
672344.235,0,0,0,1.000,1.000,1.000,-90.00,180.00,-31.50,CLOSED,0
672344.239,0,0,0,1.000,1.000,1.000,-90.00,180.00,-31.50,CLOSED,0
672344.242,0,0,0,1.000,1.000,1.000,-90.00,180.00,-31.50,CLOSED,0
672344.246,0,0,0,1.000,1.000,1.000,-90.00,180.00,-31.50,CLOSED,0
672344.249,0,0,0,1.000,1.000,1.000,-90.00,180.00,-31.50,CLOSED,0
672344.253,0,0,0,1.000,1.000,1.000,-90.00,180.00,-31.50,CLOSED,0
672344.257,0,0,0,1.000,1.000,1.000,-90.00,180.00,-31.50,CLOSED,0
672344.260,0,0,0,1.000,1.000,1.000,-90.00,180.00,-31.50,CLOSED,0
672344.265,0,0,0,1.000,1.000,1.000,-90.00,180.00,-31.50,CLOSED,0
672344.271,0,0,0,1.000,1.000,1.000,-90.00,180.00,-31.50,CLOSED,0
672344.276,0,0,0,1.000,1.000,1.000,-90.00,180.00,-31.50,CLOSED,0
672344.281,0,0,0,1.000,1.000,1.000,-90.00,180.00,-31.50,CLOSED,0
672344.288,0,0,0,1.000,1.000,1.000,-90.00,180.00,-31.50,CLOSED,0
672344.293,0,0,0,1.000,1.000,1.000,-90.00,180.00,-31.50,CLOSED,0
672344.298,0,0,0,1.000,1.000,1.000,-90.00,180.00,-31.50,CLOSED,0
672344.303,0,0,0,1.000,1.000,1.000,-90.00,180.00,-31.50,CLOSED,0
672344.307,0,0,0,1.000,1.000,1.000,-90.00,180.00,-31.50,CLOSED,0
672344.312,0,0,0,1.000,0.999,1.000,-90.00,180.00,-31.50,CLOSED,0
672344.318,0,0,0,1.000,0.997,1.000,-90.00,180.00,-31.50,CLOSED,0
672344.322,0,0,0,1.000,0.996,1.000,-90.00,180.00,-31.50,CLOSED,0
672344.327,0,0,0,1.000,0.998,1.000,-90.00,180.00,-31.50,CLOSED,0
672344.331,0,0,0,1.000,0.999,1.000,-90.00,180.00,-31.50,CLOSED,0
672344.337,0,0,0,1.000,1.000,1.000,-90.00,180.00,-31.50,CLOSED,0
672344.341,0,0,0,1.000,1.000,1.000,-90.00,180.00,-31.50,CLOSED,0
672344.345,0,0,0,1.000,1.000,1.000,-90.00,180.00,-31.50,CLOSED,0
672344.348,0,0,0,1.000,1.000,1.000,-90.00,180.00,-31.50,CLOSED,0
672344.352,0,0,0,1.000,1.000,1.000,-90.00,180.00,-31.50,CLOSED,0
672344.356,0,0,0,1.000,1.000,1.000,-90.00,180.00,-31.50,CLOSED,0
672344.360,0,0,0,1.000,1.000,1.000,-90.00,180.00,-31.50,CLOSED,0
672344.364,0,0,0,1.000,1.000,1.000,-90.00,180.00,-31.50,CLOSED,0
672344.368,0,0,0,1.000,1.000,1.000,-90.00,180.00,-31.50,CLOSED,0
672344.372,0,0,0,1.000,1.000,1.000,-90.00,180.00,-31.50,CLOSED,0
672344.376,0,0,0,1.000,1.000,1.000,-90.00,180.00,-31.50,CLOSED,0
672344.379,0,0,0,1.000,1.000,1.000,-90.00,180.00,-31.50,CLOSED,0
672344.382,0,0,0,1.000,1.000,1.000,-90.00,180.00,-31.50,CLOSED,0
672344.386,0,0,0,1.000,1.000,1.000,-90.00,180.00,-31.50,CLOSED,0
672344.390,0,0,0,1.000,1.000,1.000,-90.00,180.00,-31.50,CLOSED,0
672344.393,0,0,0,1.000,1.000,1.000,-90.00,180.00,-31.50,CLOSED,0
672344.397,0,0,0,1.000,1.000,1.000,-90.00,180.00,-31.50,CLOSED,0
672344.400,0,0,0,1.000,1.000,1.000,-90.00,180.00,-31.50,CLOSED,0
672344.403,0,0,0,1.000,1.000,1.000,-90.00,180.00,-31.50,CLOSED,0
672344.407,0,0,0,1.000,1.000,1.000,-90.00,180.00,-31.50,CLOSED,0
672344.413,0,0,0,1.000,1.000,1.000,-90.00,180.00,-31.50,CLOSED,0
672344.418,0,0,0,1.000,1.000,1.000,-90.00,180.00,-31.50,CLOSED,0
672344.423,0,0,0,1.000,1.000,1.000,-90.00,180.00,-31.50,CLOSED,0
672344.427,0,0,0,1.000,1.000,1.000,-90.00,180.00,-31.50,CLOSED,0
672344.431,0,0,0,1.000,1.000,1.000,-90.00,180.00,-31.50,CLOSED,0
672344.435,0,0,0,1.000,1.000,1.000,-90.00,180.00,-31.50,CLOSED,0
672344.439,0,0,0,1.000,1.000,1.000,-90.00,180.00,-31.50,CLOSED,0
672344.443,0,0,0,1.000,1.000,1.000,-90.00,180.00,-31.50,CLOSED,0
672344.447,0,0,0,1.000,1.000,1.000,-90.00,180.00,-31.50,CLOSED,0
672344.450,0,0,0,1.000,1.000,1.000,-90.00,180.00,-31.50,CLOSED,0
672344.454,0,0,0,1.000,1.000,1.000,-90.00,180.00,-31.50,CLOSED,0
672344.457,0,0,0,1.000,1.000,1.000,-90.00,180.00,-31.50,CLOSED,0
672344.461,0,0,0,1.000,1.000,1.000,-90.00,180.00,-31.50,CLOSED,0
672344.465,0,0,0,1.000,1.000,1.000,-90.00,180.00,-31.50,CLOSED,0
672344.468,0,0,0,1.000,1.000,1.000,-90.00,180.00,-31.50,CLOSED,0
672344.472,0,0,0,1.000,1.000,1.000,-90.00,180.00,-31.50,CLOSED,0
672344.477,0,0,0,1.000,1.000,1.000,-90.00,180.00,-31.50,CLOSED,0
672344.480,0,0,0,1.000,1.000,1.000,-90.00,180.00,-31.50,CLOSED,0
672344.484,0,0,0,1.000,1.000,1.000,-90.00,180.00,-31.50,CLOSED,0
672344.488,0,0,0,1.000,1.000,1.000,-90.00,180.00,-31.50,CLOSED,0
672344.491,0,0,0,1.000,1.000,1.000,-90.00,180.00,-31.50,CLOSED,0
672344.495,0,0,0,1.000,1.000,1.000,-90.00,180.00,-31.50,CLOSED,0
672344.498,0,0,0,1.000,1.000,1.000,-90.00,180.00,-31.50,CLOSED,0
672344.502,0,0,0,1.000,1.000,1.000,-90.00,180.00,-31.50,CLOSED,0
672344.506,0,0,0,1.000,1.000,1.000,-90.00,180.00,-31.50,CLOSED,0
672344.510,0,0,0,1.000,1.000,1.000,-90.00,180.00,-31.50,CLOSED,0
672344.513,0,0,0,1.000,1.000,1.000,-90.00,180.00,-31.50,CLOSED,0
672344.516,0,0,0,1.000,1.000,1.000,-90.00,180.00,-31.50,CLOSED,0
672344.519,0,0,0,1.000,1.000,1.000,-90.00,180.00,-31.50,CLOSED,0
672344.523,0,0,0,1.000,1.000,1.000,-90.00,180.00,-31.50,CLOSED,0
672344.527,0,0,0,1.000,1.000,1.000,-90.00,180.00,-31.50,CLOSED,0
672344.533,0,0,0,1.000,1.000,1.000,-90.00,180.00,-31.50,CLOSED,0
672344.539,0,0,0,1.000,1.000,1.000,-90.00,180.00,-31.50,CLOSED,0
672344.544,0,0,0,1.000,1.000,1.000,-90.00,180.00,-31.50,CLOSED,0
672344.548,0,0,0,1.000,1.000,1.000,-90.00,180.00,-31.50,CLOSED,0
672344.552,0,0,0,1.000,1.000,1.000,-90.00,180.00,-31.50,CLOSED,0
672344.556,0,0,0,1.000,1.000,1.000,-90.00,180.00,-31.50,CLOSED,0
672344.560,0,0,0,1.000,1.000,1.000,-90.00,180.00,-31.50,CLOSED,0
672344.563,0,0,0,1.000,1.000,1.000,-90.00,180.00,-31.50,CLOSED,0
672344.567,0,0,0,1.000,1.000,1.000,-90.00,180.00,-31.50,CLOSED,0
672344.571,0,0,0,1.000,1.000,1.000,-90.00,180.00,-31.50,CLOSED,0
672344.574,0,0,0,1.000,1.000,1.000,-90.00,180.00,-31.50,CLOSED,0
672344.578,0,0,0,1.000,1.000,1.000,-90.00,180.00,-31.50,CLOSED,0
672344.582,0,0,0,1.000,1.000,1.000,-90.00,180.00,-31.50,CLOSED,0
672344.586,0,0,0,1.000,1.000,1.000,-90.00,180.00,-31.50,CLOSED,0
672344.590,0,0,0,1.000,1.000,1.000,-90.00,180.00,-31.50,CLOSED,0
672344.594,0,0,0,1.000,0.999,1.000,-90.00,180.00,-31.50,CLOSED,0
672344.598,0,0,0,1.000,0.995,1.000,-90.00,180.00,-31.50,CLOSED,0
672344.602,0,0,0,1.000,0.752,1.000,-90.00,180.00,-31.50,CLOSED,0
672344.606,0,0,0,1.000,1.000,1.000,-90.00,180.00,-31.50,CLOSED,0
672344.610,0,0,0,1.000,1.000,1.000,-90.00,180.00,-31.50,CLOSED,0
672344.614,0,0,0,0.998,1.000,1.000,-90.00,180.00,-31.50,CLOSED,0
672344.618,0,0,0,0.993,1.000,1.000,-90.00,180.00,-31.50,CLOSED,0
672344.621,0,0,0,0.993,1.000,1.000,-90.00,180.00,-31.50,CLOSED,0
672344.625,0,0,0,0.988,1.000,1.000,-90.00,180.00,-31.50,CLOSED,0
672344.628,0,0,0,0.978,1.000,1.000,-90.00,180.00,-31.50,CLOSED,0
672344.632,0,0,0,0.966,1.000,1.000,-90.00,180.00,-31.50,CLOSED,0
672344.636,0,0,0,0.957,1.000,1.000,-90.00,180.00,-31.50,CLOSED,0
672344.640,0,0,0,0.943,1.000,0.999,-90.00,180.00,-31.50,CLOSED,0
672344.645,0,0,0,0.899,1.000,0.996,-90.00,180.00,-31.50,CLOSED,0
672344.649,0,0,0,0.800,1.000,0.937,-90.00,180.00,-31.50,CLOSED,0
672344.655,0,0,0,0.792,1.000,0.895,-90.00,180.00,-31.50,CLOSED,0
672344.659,0,0,0,0.995,1.000,0.698,-90.00,180.00,-31.50,CLOSED,0
672344.664,0,0,0,1.000,1.000,0.554,-90.00,180.00,-31.50,CLOSED,0
672344.668,0,0,0,1.000,1.000,0.947,-90.00,180.00,-31.50,CLOSED,0
672344.672,0,0,0,1.000,1.000,0.993,-90.00,180.00,-31.50,CLOSED,0
672344.675,0,0,0,1.000,1.000,1.000,-90.00,180.00,-31.50,CLOSED,0
672344.679,0,0,1,1.000,1.000,1.000,-89.76,180.00,-31.50,CLOSED,0
672344.683,0,0,1,1.000,1.000,1.000,-89.56,180.00,-31.50,CLOSED,0
672344.686,0,0,1,1.000,1.000,1.000,-89.35,180.00,-31.50,CLOSED,1
672344.690,0,0,1,1.000,1.000,1.000,-89.14,180.00,-31.50,CLOSED,0
672344.693,0,0,1,1.000,0.999,1.000,-88.92,180.00,-31.50,CLOSED,0
672344.697,0,0,1,1.000,0.993,1.000,-88.70,180.00,-31.50,CLOSED,0
672344.701,0,0,1,1.000,0.939,1.000,-88.48,180.00,-31.50,CLOSED,0
672344.705,0,0,1,0.996,0.544,1.000,-88.22,180.00,-31.50,CLOSED,0
672344.710,0,0,1,0.997,0.868,1.000,-87.89,180.00,-31.50,CLOSED,0
672344.714,0,0,1,1.000,0.805,1.000,-87.67,180.00,-31.50,CLOSED,0
672344.718,0,0,1,1.000,0.776,1.000,-87.46,180.00,-31.50,CLOSED,0
672344.721,0,0,1,1.000,0.828,1.000,-87.24,180.00,-31.50,CLOSED,0
672344.725,0,0,1,1.000,0.966,1.000,-87.01,180.00,-31.50,CLOSED,0
672344.728,0,0,1,1.000,0.990,1.000,-86.81,180.00,-31.50,CLOSED,0
672344.732,0,0,1,1.000,0.997,1.000,-86.61,180.00,-31.50,CLOSED,0
672344.736,0,0,1,1.000,0.999,1.000,-86.36,180.00,-31.50,CLOSED,0
672344.740,0,0,1,1.000,1.000,1.000,-86.13,180.00,-31.50,CLOSED,0
672344.744,0,0,1,1.000,1.000,1.000,-85.85,180.00,-31.50,CLOSED,0
672344.749,0,0,1,1.000,1.000,1.000,-85.60,180.00,-31.50,CLOSED,0
672344.754,0,0,1,1.000,1.000,1.000,-85.27,180.00,-31.50,CLOSED,0
672344.759,0,0,1,1.000,1.000,1.000,-85.00,180.00,-31.50,CLOSED,0
672344.762,0,0,1,1.000,1.000,1.000,-84.78,180.00,-31.50,CLOSED,0
672344.766,0,0,1,1.000,1.000,1.000,-84.56,180.00,-31.50,CLOSED,0
672344.769,0,0,1,1.000,1.000,1.000,-84.36,180.00,-31.50,CLOSED,0
672344.773,0,0,1,1.000,1.000,1.000,-84.15,180.00,-31.50,CLOSED,0
672344.776,0,0,1,1.000,1.000,1.000,-83.93,180.00,-31.50,CLOSED,0
672344.781,0,0,1,1.000,1.000,1.000,-83.63,180.00,-31.50,CLOSED,0
672344.787,0,0,1,1.000,1.000,1.000,-83.28,180.00,-31.50,CLOSED,1
672344.794,0,0,1,1.000,1.000,1.000,-82.90,180.00,-31.50,CLOSED,0
672344.800,0,0,1,1.000,1.000,1.000,-82.54,180.00,-31.50,CLOSED,0
672344.806,0,0,1,1.000,1.000,1.000,-82.17,180.00,-31.50,CLOSED,0
672344.811,0,0,1,1.000,1.000,1.000,-81.85,180.00,-31.50,CLOSED,0
672344.816,0,0,1,1.000,1.000,1.000,-81.54,180.00,-31.50,CLOSED,0
672344.821,0,0,1,1.000,1.000,1.000,-81.26,180.00,-31.50,CLOSED,0
672344.825,0,0,1,1.000,1.000,1.000,-81.00,180.00,-31.50,CLOSED,0
672344.830,0,0,1,1.000,1.000,1.000,-80.74,180.00,-31.50,CLOSED,0
672344.834,0,0,1,1.000,1.000,1.000,-80.51,180.00,-31.50,CLOSED,0
672344.838,0,0,1,1.000,1.000,1.000,-80.26,180.00,-31.50,CLOSED,0
672344.841,0,0,1,1.000,1.000,1.000,-80.03,180.00,-31.50,CLOSED,0
672344.845,0,0,1,1.000,1.000,1.000,-79.83,180.00,-31.50,CLOSED,0
672344.848,0,0,1,1.000,1.000,1.000,-79.63,180.00,-31.50,CLOSED,0
672344.852,0,0,1,1.000,1.000,1.000,-79.42,180.00,-31.50,CLOSED,0
672344.855,0,0,1,1.000,1.000,1.000,-79.22,180.00,-31.50,CLOSED,0
672344.858,0,0,1,1.000,1.000,1.000,-79.03,180.00,-31.50,CLOSED,0
672344.862,0,0,1,1.000,1.000,1.000,-78.82,180.00,-31.50,CLOSED,0
672344.865,0,0,1,1.000,1.000,1.000,-78.62,180.00,-31.50,CLOSED,0
672344.869,0,0,1,1.000,1.000,1.000,-78.38,180.00,-31.50,CLOSED,0
672344.873,0,0,1,1.000,1.000,1.000,-78.16,180.00,-31.50,CLOSED,0
672344.878,0,0,1,1.000,1.000,1.000,-77.85,180.00,-31.50,CLOSED,0
672344.882,0,0,1,1.000,1.000,1.000,-77.57,180.00,-31.50,CLOSED,0
672344.886,0,0,1,1.000,1.000,1.000,-77.34,180.00,-31.50,CLOSED,0
672344.890,0,0,1,1.000,1.000,1.000,-77.13,180.00,-31.50,CLOSED,1
672344.894,0,0,1,1.000,1.000,1.000,-76.90,180.00,-31.50,CLOSED,0
672344.898,0,0,1,1.000,1.000,1.000,-76.66,180.00,-31.50,CLOSED,0
672344.902,0,0,1,1.000,1.000,1.000,-76.41,180.00,-31.50,CLOSED,0
672344.905,0,0,1,1.000,1.000,1.000,-76.19,180.00,-31.50,CLOSED,0
672344.909,0,0,1,1.000,1.000,1.000,-75.98,180.00,-31.50,CLOSED,0
672344.913,0,0,1,1.000,1.000,1.000,-75.72,180.00,-31.50,CLOSED,0
672344.917,0,0,1,1.000,1.000,1.000,-75.51,180.00,-31.50,CLOSED,0
672344.920,0,0,1,1.000,1.000,1.000,-75.31,180.00,-31.50,CLOSED,0
672344.924,0,0,1,1.000,1.000,1.000,-75.10,180.00,-31.50,CLOSED,0
672344.927,0,0,1,1.000,1.000,1.000,-74.89,180.00,-31.50,CLOSED,0
672344.931,0,0,1,1.000,1.000,1.000,-74.66,180.00,-31.50,CLOSED,0
672344.934,0,0,1,1.000,1.000,1.000,-74.46,180.00,-31.50,CLOSED,0
672344.938,0,0,1,1.000,1.000,1.000,-74.24,180.00,-31.50,CLOSED,0
672344.941,0,0,1,1.000,1.000,1.000,-74.04,180.00,-31.50,CLOSED,0
672344.945,0,0,1,1.000,1.000,1.000,-73.82,180.00,-31.50,CLOSED,0
672344.949,0,0,1,1.000,1.000,1.000,-73.60,180.00,-31.50,CLOSED,0
672344.953,0,0,1,1.000,1.000,1.000,-73.37,180.00,-31.50,CLOSED,0
672344.956,0,0,1,1.000,1.000,1.000,-73.13,180.00,-31.50,CLOSED,0
672344.961,0,0,1,1.000,1.000,1.000,-72.88,180.00,-31.50,CLOSED,0
672344.965,0,0,1,1.000,1.000,1.000,-72.63,180.00,-31.50,CLOSED,0
672344.970,0,0,1,1.000,1.000,1.000,-72.34,180.00,-31.50,CLOSED,0
672344.975,0,0,1,1.000,1.000,1.000,-72.02,180.00,-31.50,CLOSED,0
672344.979,0,0,1,1.000,1.000,1.000,-71.80,180.00,-31.50,CLOSED,0
672344.982,0,0,1,1.000,1.000,1.000,-71.58,180.00,-31.50,CLOSED,0
672344.986,0,0,1,1.000,1.000,1.000,-71.35,180.00,-31.50,CLOSED,0
672344.990,0,0,1,1.000,1.000,1.000,-71.14,180.00,-31.50,CLOSED,0
672344.993,0,0,1,1.000,1.000,1.000,-70.91,180.00,-31.50,CLOSED,1
672344.999,0,0,1,1.000,1.000,1.000,-70.59,180.00,-31.50,CLOSED,0
672345.003,0,0,1,1.000,1.000,1.000,-70.35,180.00,-31.50,CLOSED,0
672345.007,0,0,1,1.000,1.000,1.000,-70.09,180.00,-31.50,CLOSED,0
672345.012,0,0,1,1.000,1.000,1.000,-69.79,180.00,-31.50,CLOSED,0
672345.016,0,0,1,1.000,1.000,1.000,-69.55,180.00,-31.50,CLOSED,0
672345.020,0,0,1,1.000,1.000,1.000,-69.29,180.00,-31.50,CLOSED,0
672345.024,0,0,1,1.000,1.000,1.000,-69.05,180.00,-31.50,CLOSED,0
672345.028,0,0,1,1.000,1.000,1.000,-68.83,180.00,-31.50,CLOSED,0
672345.032,0,0,1,1.000,1.000,1.000,-68.62,180.00,-31.50,CLOSED,0
672345.035,0,0,1,1.000,1.000,1.000,-68.41,180.00,-31.50,CLOSED,0
672345.039,0,0,1,1.000,1.000,1.000,-68.18,180.00,-31.50,CLOSED,0
672345.042,0,0,1,1.000,1.000,1.000,-67.97,180.00,-31.50,CLOSED,0
672345.046,0,0,1,1.000,1.000,1.000,-67.76,180.00,-31.50,CLOSED,0
672345.050,0,0,1,1.000,1.000,1.000,-67.53,180.00,-31.50,CLOSED,0
672345.054,0,0,1,1.000,1.000,1.000,-67.27,180.00,-31.50,CLOSED,0
672345.058,0,0,1,1.000,1.000,1.000,-67.05,180.00,-31.50,CLOSED,0
672345.061,0,0,1,1.000,1.000,1.000,-66.83,180.00,-31.50,CLOSED,0
672345.065,0,0,1,1.000,1.000,1.000,-66.59,180.00,-31.50,CLOSED,0
672345.070,0,0,1,1.000,1.000,1.000,-66.32,180.00,-31.50,CLOSED,0
672345.074,0,0,1,1.000,1.000,1.000,-66.06,180.00,-31.50,CLOSED,0
672345.078,0,0,1,1.000,1.000,1.000,-65.84,180.00,-31.50,CLOSED,0
672345.082,0,0,1,1.000,1.000,1.000,-65.60,180.00,-31.50,CLOSED,0
672345.086,0,0,1,1.000,1.000,1.000,-65.37,180.00,-31.50,CLOSED,0
672345.090,0,0,1,1.000,1.000,1.000,-65.15,180.00,-31.50,CLOSED,0
672345.094,0,0,1,1.000,1.000,1.000,-64.88,180.00,-31.50,CLOSED,1
672345.099,0,0,1,1.000,1.000,1.000,-64.61,180.00,-31.50,CLOSED,0
672345.103,0,0,1,1.000,1.000,1.000,-64.36,180.00,-31.50,CLOSED,0
672345.107,0,0,1,1.000,1.000,1.000,-64.12,180.00,-31.50,CLOSED,0
672345.111,0,0,1,1.000,1.000,1.000,-63.88,180.00,-31.50,CLOSED,0
672345.114,0,0,1,1.000,1.000,1.000,-63.66,180.00,-31.50,CLOSED,0
672345.118,0,0,1,1.000,1.000,1.000,-63.44,180.00,-31.50,CLOSED,0
672345.122,0,0,1,1.000,1.000,1.000,-63.22,180.00,-31.50,CLOSED,0
672345.126,0,0,1,1.000,1.000,1.000,-62.98,180.00,-31.50,CLOSED,0
672345.129,0,0,1,1.000,1.000,1.000,-62.77,180.00,-31.50,CLOSED,0
672345.133,0,0,1,1.000,1.000,1.000,-62.55,180.00,-31.50,CLOSED,0
672345.137,0,0,1,1.000,1.000,1.000,-62.32,180.00,-31.50,CLOSED,0
672345.140,0,0,1,1.000,1.000,1.000,-62.10,180.00,-31.50,CLOSED,0
672345.144,0,0,1,1.000,1.000,1.000,-61.87,180.00,-31.50,CLOSED,0
672345.148,0,0,1,1.000,1.000,1.000,-61.64,180.00,-31.50,CLOSED,0
672345.152,0,0,1,1.000,1.000,1.000,-61.41,180.00,-31.50,CLOSED,0
672345.156,0,0,1,1.000,1.000,1.000,-61.18,180.00,-31.50,CLOSED,0
672345.159,0,0,1,1.000,1.000,1.000,-60.96,180.00,-31.50,CLOSED,0
672345.163,0,0,1,1.000,1.000,1.000,-60.71,180.00,-31.50,CLOSED,0
672345.167,0,0,1,1.000,1.000,1.000,-60.50,180.00,-31.50,CLOSED,0
672345.171,0,0,1,1.000,1.000,1.000,-60.28,180.00,-31.50,CLOSED,0
672345.174,0,0,1,1.000,1.000,1.000,-60.05,180.00,-31.50,CLOSED,0
672345.180,0,0,1,1.000,1.000,1.000,-59.72,180.00,-31.50,CLOSED,0
672345.184,0,0,1,1.000,1.000,1.000,-59.46,180.00,-31.50,CLOSED,0
672345.188,0,0,1,1.000,1.000,1.000,-59.24,180.00,-31.50,CLOSED,0
672345.192,0,0,1,1.000,1.000,1.000,-59.02,180.00,-31.50,CLOSED,0
672345.197,0,0,0,1.000,1.000,1.000,-59.35,180.00,-31.50,CLOSED,1
672345.201,0,0,0,1.000,1.000,1.000,-59.59,180.00,-31.50,CLOSED,0
672345.205,0,0,0,1.000,1.000,1.000,-59.86,180.00,-31.50,CLOSED,0
672345.209,0,0,0,0.999,1.000,1.000,-60.09,180.00,-31.50,CLOSED,0
672345.213,0,0,0,1.000,1.000,1.000,-60.30,180.00,-31.50,CLOSED,0
672345.216,0,0,0,0.999,0.985,1.000,-60.51,180.00,-31.50,CLOSED,0
672345.223,0,0,0,1.000,0.997,0.988,-60.94,180.00,-31.50,CLOSED,0
672345.231,0,0,0,0.997,1.000,0.522,-61.38,180.00,-31.50,CLOSED,0
672345.242,0,0,0,0.988,1.000,0.916,-62.03,180.00,-31.50,CLOSED,0
672345.254,0,0,0,0.988,1.000,0.968,-62.74,180.00,-31.50,CLOSED,0
672345.270,0,0,0,0.984,1.000,0.974,-63.75,180.00,-31.50,CLOSED,0
672345.278,0,0,0,0.990,1.000,0.974,-64.21,180.00,-31.50,CLOSED,0
672345.285,0,0,0,0.993,1.000,0.976,-64.62,180.00,-31.50,CLOSED,0
672345.292,0,0,0,0.994,1.000,0.962,-65.06,180.00,-31.50,CLOSED,0
672345.297,0,0,0,0.996,1.000,0.967,-65.33,180.00,-31.50,CLOSED,0
672345.301,0,0,0,1.000,1.000,0.968,-65.58,180.00,-31.50,CLOSED,1
672345.305,0,0,0,1.000,1.000,0.942,-65.84,180.00,-31.50,CLOSED,0
672345.309,0,0,0,1.000,1.000,0.924,-66.07,180.00,-31.50,CLOSED,0
672345.314,0,0,0,1.000,1.000,0.954,-66.38,180.00,-31.50,CLOSED,0
672345.318,0,0,0,1.000,1.000,0.982,-66.63,180.00,-31.50,CLOSED,0
672345.322,0,0,0,1.000,1.000,0.996,-66.85,180.00,-31.50,CLOSED,0
672345.325,0,0,0,1.000,1.000,1.000,-67.06,180.00,-31.50,CLOSED,0
672345.329,0,0,0,1.000,1.000,1.000,-67.27,180.00,-31.50,CLOSED,0
672345.332,0,0,0,1.000,1.000,1.000,-67.47,180.00,-31.50,CLOSED,0
672345.336,0,0,0,1.000,1.000,1.000,-67.69,180.00,-31.50,CLOSED,0
672345.339,0,0,0,1.000,1.000,1.000,-67.90,180.00,-31.50,CLOSED,0
672345.343,0,0,0,1.000,1.000,1.000,-68.13,180.00,-31.50,CLOSED,0
672345.347,0,0,0,1.000,1.000,1.000,-68.36,180.00,-31.50,CLOSED,0
672345.351,0,0,0,1.000,0.999,1.000,-68.59,180.00,-31.50,CLOSED,0
672345.355,0,0,0,1.000,0.991,1.000,-68.82,180.00,-31.50,CLOSED,0
672345.358,0,0,0,1.000,0.974,1.000,-69.04,180.00,-31.50,CLOSED,0
672345.362,0,0,0,1.000,0.942,1.000,-69.24,180.00,-31.50,CLOSED,0
672345.365,0,0,0,1.000,0.925,1.000,-69.45,180.00,-31.50,CLOSED,0
672345.369,0,0,0,1.000,0.880,1.000,-69.66,180.00,-31.50,CLOSED,0
672345.372,0,0,0,1.000,0.821,1.000,-69.88,180.00,-31.50,CLOSED,0
672345.377,0,0,0,1.000,0.805,1.000,-70.14,180.00,-31.50,CLOSED,0
672345.382,0,0,0,0.999,0.958,1.000,-70.42,180.00,-31.50,CLOSED,0
672345.386,0,0,0,0.999,0.995,1.000,-70.72,180.00,-31.50,CLOSED,0
672345.391,0,0,0,0.999,0.999,1.000,-70.97,180.00,-31.50,CLOSED,0
672345.395,0,0,0,0.998,1.000,1.000,-71.23,180.00,-31.50,CLOSED,0
672345.399,0,0,0,1.000,1.000,1.000,-71.50,180.00,-31.50,CLOSED,0
672345.404,0,0,0,1.000,1.000,1.000,-71.76,180.00,-31.50,CLOSED,1
672345.408,0,0,0,1.000,1.000,1.000,-72.01,180.00,-31.50,CLOSED,0
672345.412,0,0,0,1.000,1.000,1.000,-72.25,180.00,-31.50,CLOSED,0
672345.416,0,0,0,1.000,1.000,1.000,-72.48,180.00,-31.50,CLOSED,0
672345.419,0,0,0,1.000,1.000,1.000,-72.70,180.00,-31.50,CLOSED,0
672345.423,0,0,0,1.000,1.000,1.000,-72.94,180.00,-31.50,CLOSED,0
672345.427,0,0,0,1.000,1.000,1.000,-73.16,180.00,-31.50,CLOSED,0
672345.430,0,0,0,1.000,1.000,1.000,-73.36,180.00,-31.50,CLOSED,0
672345.434,0,0,0,1.000,1.000,1.000,-73.57,180.00,-31.50,CLOSED,0
672345.439,0,0,0,1.000,1.000,1.000,-73.88,180.00,-31.50,CLOSED,0
672345.443,0,0,0,1.000,1.000,1.000,-74.11,180.00,-31.50,CLOSED,0
672345.447,0,0,0,1.000,1.000,1.000,-74.34,180.00,-31.50,CLOSED,0
672345.450,0,0,0,1.000,1.000,1.000,-74.55,180.00,-31.50,CLOSED,0
672345.455,0,0,0,1.000,1.000,1.000,-74.81,180.00,-31.50,CLOSED,0
672345.459,0,0,0,1.000,1.000,1.000,-75.05,180.00,-31.50,CLOSED,0
672345.462,0,0,0,1.000,1.000,1.000,-75.26,180.00,-31.50,CLOSED,0
672345.466,0,0,0,1.000,1.000,1.000,-75.47,180.00,-31.50,CLOSED,0
672345.469,0,0,0,1.000,1.000,1.000,-75.69,180.00,-31.50,CLOSED,0
672345.473,0,0,0,1.000,1.000,1.000,-75.90,180.00,-31.50,CLOSED,0
672345.476,0,0,0,1.000,1.000,1.000,-76.12,180.00,-31.50,CLOSED,0
672345.480,0,0,0,1.000,1.000,1.000,-76.33,180.00,-31.50,CLOSED,0
672345.484,0,0,0,1.000,1.000,1.000,-76.55,180.00,-31.50,CLOSED,0
672345.487,0,0,0,1.000,1.000,1.000,-76.76,180.00,-31.50,CLOSED,0
672345.491,0,0,0,1.000,1.000,1.000,-76.98,180.00,-31.50,CLOSED,0
672345.494,0,0,0,1.000,1.000,1.000,-77.19,180.00,-31.50,CLOSED,0
672345.498,0,0,0,1.000,1.000,1.000,-77.41,180.00,-31.50,CLOSED,0
672345.502,0,0,0,1.000,1.000,1.000,-77.63,180.00,-31.50,CLOSED,0
672345.505,0,0,0,1.000,1.000,1.000,-77.86,180.00,-31.50,CLOSED,1
672345.509,0,0,0,1.000,1.000,1.000,-78.06,180.00,-31.50,CLOSED,0
672345.512,0,0,0,1.000,1.000,1.000,-78.27,180.00,-31.50,CLOSED,0
672345.516,0,0,0,1.000,1.000,1.000,-78.48,180.00,-31.50,CLOSED,0
672345.520,0,0,0,1.000,1.000,1.000,-78.73,180.00,-31.50,CLOSED,0
672345.524,0,0,0,1.000,1.000,1.000,-78.97,180.00,-31.50,CLOSED,0
672345.528,0,0,0,1.000,1.000,1.000,-79.22,180.00,-31.50,CLOSED,0
672345.533,0,0,0,1.000,1.000,1.000,-79.51,180.00,-31.50,CLOSED,0
672345.537,0,0,0,1.000,1.000,1.000,-79.77,180.00,-31.50,CLOSED,0
672345.541,0,0,0,1.000,1.000,1.000,-80.00,180.00,-31.50,CLOSED,0
672345.545,0,0,0,1.000,1.000,1.000,-80.21,180.00,-31.50,CLOSED,0
672345.548,0,0,0,1.000,1.000,1.000,-80.41,180.00,-31.50,CLOSED,0
672345.552,0,0,0,1.000,1.000,1.000,-80.66,180.00,-31.50,CLOSED,0
672345.557,0,0,0,1.000,1.000,1.000,-80.94,180.00,-31.50,CLOSED,0
672345.562,0,0,0,1.000,1.000,1.000,-81.24,180.00,-31.50,CLOSED,0
672345.565,0,0,0,1.000,1.000,1.000,-81.46,180.00,-31.50,CLOSED,0
672345.569,0,0,0,1.000,1.000,1.000,-81.67,180.00,-31.50,CLOSED,0
672345.575,0,0,0,1.000,1.000,1.000,-82.05,180.00,-31.50,CLOSED,0
672345.582,0,0,0,1.000,1.000,1.000,-82.44,180.00,-31.50,CLOSED,0
672345.589,0,0,0,1.000,1.000,1.000,-82.85,180.00,-31.50,CLOSED,0
672345.595,0,0,0,1.000,1.000,1.000,-83.21,180.00,-31.50,CLOSED,0
672345.600,0,0,0,1.000,1.000,1.000,-83.53,180.00,-31.50,CLOSED,0
672345.605,0,0,0,1.000,1.000,1.000,-83.84,180.00,-31.50,CLOSED,0
672345.609,0,0,0,1.000,1.000,1.000,-84.09,180.00,-31.50,CLOSED,1
672345.613,0,0,0,1.000,1.000,1.000,-84.33,180.00,-31.50,CLOSED,0
672345.617,0,0,0,1.000,1.000,1.000,-84.58,180.00,-31.50,CLOSED,0
672345.621,0,0,0,1.000,1.000,1.000,-84.80,180.00,-31.50,CLOSED,0
672345.625,0,0,0,1.000,1.000,1.000,-85.04,180.00,-31.50,CLOSED,0
672345.629,0,0,0,1.000,1.000,1.000,-85.26,180.00,-31.50,CLOSED,0
672345.633,0,0,0,1.000,1.000,1.000,-85.49,180.00,-31.50,CLOSED,0
672345.637,0,0,0,1.000,1.000,1.000,-85.73,180.00,-31.50,CLOSED,0
672345.641,0,0,0,1.000,1.000,1.000,-85.98,180.00,-31.50,CLOSED,0
672345.645,0,0,0,1.000,1.000,1.000,-86.22,180.00,-31.50,CLOSED,0
672345.649,0,0,0,1.000,1.000,1.000,-86.46,180.00,-31.50,CLOSED,0
672345.653,0,0,0,1.000,1.000,1.000,-86.69,180.00,-31.50,CLOSED,0
672345.657,0,0,0,1.000,1.000,1.000,-86.93,180.00,-31.50,CLOSED,0
672345.661,0,0,0,1.000,1.000,1.000,-87.19,180.00,-31.50,CLOSED,0
672345.665,0,0,0,1.000,1.000,1.000,-87.42,180.00,-31.50,CLOSED,0
672345.669,0,0,0,1.000,1.000,1.000,-87.65,180.00,-31.50,CLOSED,0
672345.672,0,0,0,1.000,1.000,1.000,-87.87,180.00,-31.50,CLOSED,0
672345.676,0,0,0,1.000,1.000,1.000,-88.08,180.00,-31.50,CLOSED,0
672345.680,0,0,0,1.000,1.000,1.000,-88.31,180.00,-31.50,CLOSED,0
672345.683,0,0,0,1.000,1.000,1.000,-88.54,180.00,-31.50,CLOSED,0
672345.687,0,0,0,1.000,1.000,1.000,-88.76,180.00,-31.50,CLOSED,0
672345.691,0,0,0,1.000,1.000,1.000,-88.98,180.00,-31.50,CLOSED,0
672345.694,0,0,0,1.000,1.000,1.000,-89.19,180.00,-31.50,CLOSED,0
672345.698,0,0,0,1.000,1.000,1.000,-89.41,180.00,-31.50,CLOSED,0
672345.702,0,0,0,1.000,1.000,1.000,-89.63,180.00,-31.50,CLOSED,0
672345.705,0,0,0,1.000,1.000,1.000,-89.86,180.00,-31.50,CLOSED,0
672345.709,0,0,0,1.000,1.000,1.000,-90.00,180.00,-31.50,CLOSED,0
672345.713,0,0,0,1.000,1.000,1.000,-90.00,180.00,-31.50,CLOSED,1
672345.717,0,0,0,1.000,1.000,1.000,-90.00,180.00,-31.50,CLOSED,0
672345.721,0,0,0,1.000,1.000,1.000,-90.00,180.00,-31.50,CLOSED,0
672345.724,0,0,0,1.000,1.000,1.000,-90.00,180.00,-31.50,CLOSED,0
672345.728,0,0,0,1.000,1.000,1.000,-90.00,180.00,-31.50,CLOSED,0
672345.731,0,0,0,1.000,1.000,1.000,-90.00,180.00,-31.50,CLOSED,0
672345.735,0,0,0,1.000,1.000,1.000,-90.00,180.00,-31.50,CLOSED,0
672345.738,0,0,0,1.000,1.000,1.000,-90.00,180.00,-31.50,CLOSED,0
672345.742,0,0,0,1.000,1.000,1.000,-90.00,180.00,-31.50,CLOSED,0
672345.746,0,0,0,1.000,1.000,1.000,-90.00,180.00,-31.50,CLOSED,0
672345.749,0,0,0,1.000,1.000,1.000,-90.00,180.00,-31.50,CLOSED,0
672345.753,0,0,0,1.000,1.000,1.000,-90.00,180.00,-31.50,CLOSED,0
672345.757,0,0,0,1.000,1.000,1.000,-90.00,180.00,-31.50,CLOSED,0
672345.761,0,0,0,1.000,1.000,1.000,-90.00,180.00,-31.50,CLOSED,0
672345.765,0,0,0,1.000,1.000,1.000,-90.00,180.00,-31.50,CLOSED,0
672345.768,0,0,0,1.000,0.999,1.000,-90.00,180.00,-31.50,CLOSED,0
672345.773,0,0,0,1.000,0.995,1.000,-90.00,180.00,-31.50,CLOSED,0
672345.777,0,0,0,1.000,0.975,1.000,-90.00,180.00,-31.50,CLOSED,0
672345.782,0,0,0,1.000,0.857,0.999,-90.00,180.00,-31.50,CLOSED,0
672345.786,0,0,0,1.000,0.741,0.998,-90.00,180.00,-31.50,CLOSED,0
672345.790,0,0,0,1.000,0.639,0.992,-90.00,180.00,-31.50,CLOSED,0
672345.794,0,1,0,0.999,0.914,0.968,-90.00,179.77,-31.50,CLOSED,0
672345.799,0,1,0,0.999,0.976,0.877,-90.00,179.48,-31.50,CLOSED,0
672345.803,0,1,1,0.999,0.990,0.686,-89.76,179.23,-31.50,CLOSED,0
672345.807,0,1,1,0.998,0.996,0.554,-89.52,178.99,-31.50,CLOSED,0
672345.811,0,1,1,0.999,0.992,0.619,-89.29,178.76,-31.50,CLOSED,0
672345.815,0,1,1,0.999,0.995,0.804,-89.06,178.53,-31.50,CLOSED,1
672345.819,0,1,1,0.999,1.000,0.941,-88.80,178.28,-31.50,CLOSED,0
672345.823,0,1,1,1.000,1.000,0.996,-88.57,178.05,-31.50,CLOSED,0
672345.826,0,1,1,1.000,1.000,0.996,-88.35,177.83,-31.50,CLOSED,0
672345.831,0,1,1,1.000,1.000,0.999,-88.10,177.58,-31.50,CLOSED,0
672345.836,0,1,1,1.000,1.000,0.999,-87.78,177.25,-31.50,CLOSED,0
672345.841,0,1,1,1.000,1.000,0.998,-87.46,176.93,-31.50,CLOSED,0
672345.847,0,1,1,1.000,1.000,0.998,-87.12,176.59,-31.50,CLOSED,0
672345.852,0,1,1,1.000,1.000,0.995,-86.82,176.30,-31.50,CLOSED,0
672345.857,0,1,1,1.000,1.000,0.988,-86.53,176.01,-31.50,CLOSED,0
672345.861,0,1,1,1.000,1.000,0.554,-86.29,175.76,-31.50,CLOSED,0
672345.865,0,1,1,1.000,0.998,0.952,-86.01,175.49,-31.50,CLOSED,0
672345.869,0,1,1,1.000,0.994,0.942,-85.77,175.25,-31.50,CLOSED,0
672345.873,0,1,1,1.000,0.986,0.952,-85.56,175.03,-31.50,CLOSED,0
672345.877,0,1,1,1.000,0.926,0.977,-85.31,174.78,-31.50,CLOSED,0
672345.882,0,1,1,1.000,0.668,0.982,-85.03,174.50,-31.50,CLOSED,0
672345.886,0,1,1,1.000,0.990,0.994,-84.79,174.26,-31.50,CLOSED,0
672345.889,0,1,1,1.000,1.000,0.994,-84.57,174.05,-31.50,CLOSED,0
672345.895,0,1,1,1.000,1.000,0.995,-84.24,173.72,-31.50,CLOSED,0
672345.902,0,1,1,1.000,1.000,0.979,-83.81,173.28,-31.50,CLOSED,0
672345.908,0,1,1,1.000,1.000,0.965,-83.45,172.92,-31.50,CLOSED,0
672345.914,0,1,1,1.000,1.000,0.951,-83.09,172.56,-31.50,CLOSED,0
672345.920,0,1,1,1.000,0.998,0.823,-82.76,172.24,-31.50,CLOSED,1
672345.924,0,1,1,1.000,0.991,0.642,-82.50,171.98,-31.50,CLOSED,0
672345.928,0,1,1,1.000,0.915,0.775,-82.25,171.72,-31.50,CLOSED,0
672345.932,0,1,1,1.000,0.762,0.873,-81.99,171.47,-31.50,CLOSED,0
672345.936,0,1,1,1.000,0.502,0.918,-81.75,171.23,-31.50,CLOSED,0
672345.940,0,1,1,1.000,0.719,0.947,-81.50,170.98,-31.50,CLOSED,0
672345.944,0,1,1,1.000,0.862,0.970,-81.29,170.76,-31.50,CLOSED,0
672345.948,0,1,1,1.000,0.974,0.993,-81.05,170.52,-31.50,CLOSED,0
672345.952,0,1,1,1.000,0.996,0.998,-80.82,170.29,-31.50,CLOSED,0
672345.957,0,1,1,1.000,0.999,0.999,-80.49,169.97,-31.50,CLOSED,0
672345.962,0,1,1,1.000,1.000,1.000,-80.21,169.69,-31.50,CLOSED,0
672345.966,0,1,1,1.000,1.000,1.000,-79.99,169.47,-31.50,CLOSED,0
672345.969,0,1,1,1.000,1.000,1.000,-79.76,169.24,-31.50,CLOSED,0
672345.973,0,1,1,1.000,1.000,1.000,-79.55,169.02,-31.50,CLOSED,0
672345.977,0,1,1,1.000,1.000,1.000,-79.31,168.78,-31.50,CLOSED,0
672345.981,0,1,1,1.000,1.000,1.000,-79.09,168.57,-31.50,CLOSED,0
672345.984,0,1,1,1.000,1.000,1.000,-78.87,168.34,-31.50,CLOSED,0
672345.988,0,1,1,1.000,1.000,1.000,-78.66,168.13,-31.50,CLOSED,0
672345.994,0,1,1,1.000,1.000,1.000,-78.31,167.79,-31.50,CLOSED,0
672345.999,0,1,1,1.000,1.000,1.000,-78.00,167.47,-31.50,CLOSED,0
672346.005,0,1,1,1.000,1.000,1.000,-77.65,167.12,-31.50,CLOSED,0
672346.010,0,1,1,1.000,1.000,1.000,-77.33,166.81,-31.50,CLOSED,0
672346.016,0,1,1,1.000,1.000,1.000,-77.00,166.47,-31.50,CLOSED,0
672346.020,0,1,1,1.000,1.000,1.000,-76.71,166.18,-31.50,CLOSED,1
672346.024,0,1,1,1.000,1.000,1.000,-76.48,165.95,-31.50,CLOSED,0
672346.028,0,1,1,1.000,1.000,1.000,-76.24,165.72,-31.50,CLOSED,0
672346.032,0,1,1,1.000,1.000,1.000,-76.03,165.51,-31.50,CLOSED,0
672346.035,0,1,1,1.000,1.000,1.000,-75.82,165.30,-31.50,CLOSED,0
672346.039,0,1,1,1.000,1.000,1.000,-75.61,165.08,-31.50,CLOSED,0
672346.043,0,1,1,1.000,1.000,1.000,-75.34,164.82,-31.50,CLOSED,0
672346.048,0,1,1,1.000,1.000,1.000,-75.08,164.55,-31.50,CLOSED,0
672346.052,0,1,1,1.000,1.000,1.000,-74.82,164.30,-31.50,CLOSED,0
672346.057,0,1,1,1.000,1.000,1.000,-74.51,163.99,-31.50,CLOSED,0
672346.061,0,1,1,1.000,1.000,1.000,-74.25,163.73,-31.50,CLOSED,0
672346.065,0,1,1,1.000,1.000,1.000,-74.01,163.49,-31.50,CLOSED,0
672346.069,0,1,1,1.000,1.000,1.000,-73.79,163.26,-31.50,CLOSED,0
672346.073,0,1,1,1.000,1.000,1.000,-73.55,163.03,-31.50,CLOSED,0
672346.077,0,1,1,1.000,1.000,1.000,-73.33,162.81,-31.50,CLOSED,0
672346.080,0,1,1,1.000,1.000,1.000,-73.11,162.59,-31.50,CLOSED,0
672346.084,0,1,1,1.000,1.000,1.000,-72.90,162.37,-31.50,CLOSED,0
672346.088,0,1,1,1.000,1.000,1.000,-72.68,162.15,-31.50,CLOSED,0
672346.091,0,1,1,1.000,1.000,1.000,-72.46,161.94,-31.50,CLOSED,0
672346.095,0,1,1,1.000,1.000,1.000,-72.24,161.71,-31.50,CLOSED,0
672346.101,0,1,1,1.000,1.000,1.000,-71.87,161.35,-31.50,CLOSED,0
672346.107,0,1,1,1.000,1.000,1.000,-71.51,160.98,-31.50,CLOSED,0
672346.112,0,1,1,1.000,1.000,1.000,-71.21,160.68,-31.50,CLOSED,0
672346.117,0,1,1,1.000,1.000,1.000,-70.93,160.40,-31.50,CLOSED,0
672346.122,0,1,1,1.000,1.000,1.000,-70.61,160.08,-31.50,CLOSED,1
672346.126,0,1,1,1.000,1.000,1.000,-70.36,159.84,-31.50,CLOSED,0
672346.130,0,1,1,1.000,1.000,1.000,-70.13,159.60,-31.50,CLOSED,0
672346.134,0,1,1,1.000,1.000,1.000,-69.90,159.38,-31.50,CLOSED,0
672346.138,0,1,1,1.000,1.000,1.000,-69.65,159.12,-31.50,CLOSED,0
672346.142,0,1,1,1.000,1.000,1.000,-69.44,158.91,-31.50,CLOSED,0
672346.145,0,1,1,1.000,1.000,1.000,-69.21,158.68,-31.50,CLOSED,0
672346.149,0,1,1,1.000,1.000,1.000,-68.99,158.46,-31.50,CLOSED,0
672346.153,0,1,1,1.000,1.000,1.000,-68.75,158.22,-31.50,CLOSED,0
672346.157,0,1,1,1.000,1.000,1.000,-68.50,157.98,-31.50,CLOSED,0
672346.162,0,1,1,1.000,1.000,1.000,-68.23,157.71,-31.50,CLOSED,0
672346.167,0,1,1,1.000,1.000,1.000,-67.93,157.41,-31.50,CLOSED,0
672346.171,0,1,1,1.000,1.000,1.000,-67.67,157.15,-31.50,CLOSED,0
672346.175,0,1,1,1.000,1.000,1.000,-67.44,156.91,-31.50,CLOSED,0
672346.179,0,1,1,1.000,1.000,1.000,-67.21,156.68,-31.50,CLOSED,0
672346.183,0,1,1,1.000,1.000,1.000,-66.97,156.45,-31.50,CLOSED,0
672346.186,0,1,1,1.000,1.000,1.000,-66.77,156.24,-31.50,CLOSED,0
672346.190,0,1,1,1.000,1.000,1.000,-66.56,156.04,-31.50,CLOSED,0
672346.193,0,1,1,1.000,1.000,1.000,-66.36,155.84,-31.50,CLOSED,0
672346.196,0,1,1,1.000,1.000,1.000,-66.15,155.62,-31.50,CLOSED,0
672346.200,0,1,1,1.000,1.000,1.000,-65.93,155.41,-31.50,CLOSED,0
672346.204,0,1,1,1.000,1.000,1.000,-65.71,155.19,-31.50,CLOSED,0
672346.208,0,1,1,1.000,1.000,1.000,-65.48,154.95,-31.50,CLOSED,0
672346.212,0,1,1,1.000,1.000,1.000,-65.20,154.68,-31.50,CLOSED,0
672346.216,0,1,1,1.000,1.000,1.000,-64.96,154.44,-31.50,CLOSED,0
672346.221,0,1,1,1.000,1.000,1.000,-64.68,154.15,-31.50,CLOSED,0
672346.226,0,1,1,1.000,1.000,1.000,-64.39,153.87,-31.50,CLOSED,1
672346.230,0,1,1,1.000,1.000,1.000,-64.11,153.59,-31.50,CLOSED,0
672346.235,0,1,1,1.000,1.000,1.000,-63.83,153.30,-31.50,CLOSED,0
672346.240,0,1,1,1.000,1.000,1.000,-63.56,153.04,-31.50,CLOSED,0
672346.244,0,1,1,1.000,1.000,1.000,-63.26,152.74,-31.50,CLOSED,0
672346.249,0,1,1,1.000,1.000,1.000,-63.01,152.48,-31.50,CLOSED,0
672346.253,0,1,1,1.000,1.000,1.000,-62.75,152.23,-31.50,CLOSED,0
672346.257,0,1,1,1.000,1.000,1.000,-62.53,152.00,-31.50,CLOSED,0
672346.260,0,1,1,1.000,1.000,1.000,-62.31,151.79,-31.50,CLOSED,0
672346.264,0,1,1,1.000,1.000,1.000,-62.11,151.58,-31.50,CLOSED,0
672346.268,0,1,1,1.000,1.000,1.000,-61.87,151.34,-31.50,CLOSED,0
672346.271,0,1,1,1.000,1.000,1.000,-61.66,151.13,-31.50,CLOSED,0
672346.275,0,1,1,1.000,1.000,1.000,-61.46,150.93,-31.50,CLOSED,0
672346.278,0,1,1,1.000,1.000,1.000,-61.24,150.72,-31.50,CLOSED,0
672346.282,0,1,1,1.000,1.000,1.000,-61.03,150.51,-31.50,CLOSED,0
672346.285,0,1,1,1.000,1.000,1.000,-60.83,150.31,-31.50,CLOSED,0
672346.289,0,1,1,1.000,1.000,1.000,-60.62,150.09,-31.50,CLOSED,0
672346.292,0,1,1,1.000,1.000,1.000,-60.38,149.86,-31.50,CLOSED,0
672346.296,0,1,1,1.000,1.000,1.000,-60.16,149.63,-31.50,CLOSED,0
672346.300,0,1,1,1.000,1.000,1.000,-59.91,149.39,-31.50,CLOSED,0
672346.305,0,1,1,1.000,1.000,1.000,-59.63,149.11,-31.50,CLOSED,0
672346.310,0,1,1,1.000,1.000,1.000,-59.34,148.81,-31.50,CLOSED,0
672346.315,0,1,1,1.000,1.000,1.000,-59.04,148.52,-31.50,CLOSED,0
672346.320,0,1,1,1.000,1.000,1.000,-58.74,148.22,-31.50,CLOSED,0
672346.325,0,0,1,1.000,1.000,1.000,-58.43,148.53,-31.50,CLOSED,0
672346.329,0,0,1,1.000,1.000,1.000,-58.17,148.79,-31.50,CLOSED,1
672346.334,0,0,1,1.000,1.000,1.000,-57.92,149.04,-31.50,CLOSED,0
672346.339,0,0,1,1.000,1.000,1.000,-57.61,149.35,-31.50,CLOSED,0
672346.342,0,0,0,1.000,1.000,1.000,-57.83,149.57,-31.50,CLOSED,0
672346.346,0,0,0,1.000,1.000,1.000,-58.04,149.78,-31.50,CLOSED,0
672346.349,0,0,0,1.000,1.000,1.000,-58.25,149.99,-31.50,CLOSED,0
672346.353,0,0,0,1.000,1.000,1.000,-58.47,150.22,-31.50,CLOSED,0
672346.357,0,0,0,0.990,1.000,1.000,-58.70,150.44,-31.50,CLOSED,0
672346.360,0,0,0,0.988,1.000,1.000,-58.91,150.66,-31.50,CLOSED,0
672346.364,0,0,0,0.564,1.000,1.000,-59.13,150.87,-31.50,CLOSED,0
672346.368,0,0,0,0.740,1.000,1.000,-59.38,151.12,-31.50,CLOSED,0
672346.373,0,0,0,0.765,1.000,1.000,-59.65,151.39,-31.50,CLOSED,0
672346.377,0,0,0,0.770,1.000,1.000,-59.90,151.64,-31.50,CLOSED,0
672346.381,0,0,0,0.847,1.000,1.000,-60.16,151.90,-31.50,CLOSED,0
672346.385,0,0,0,0.610,1.000,1.000,-60.40,152.14,-31.50,CLOSED,0
672346.390,0,0,0,0.876,1.000,1.000,-60.67,152.41,-31.50,CLOSED,0
672346.394,0,0,0,0.973,1.000,1.000,-60.91,152.65,-31.50,CLOSED,0
672346.399,0,0,0,0.999,1.000,1.000,-61.21,152.95,-31.50,CLOSED,0
672346.403,3,0,0,1.000,1.000,1.000,-61.45,153.19,-31.50,OPEN,0
672346.407,3,0,0,1.000,1.000,1.000,-61.68,153.42,-31.50,OPEN,0
672346.410,3,0,0,1.000,1.000,1.000,-61.90,153.64,-31.50,OPEN,0
672346.414,3,0,0,1.000,1.000,1.000,-62.10,153.84,-31.50,OPEN,0
672346.417,3,0,0,1.000,1.000,1.000,-62.31,154.05,-31.50,OPEN,0
672346.421,3,0,0,1.000,1.000,1.000,-62.54,154.28,-31.50,OPEN,0
672346.425,3,0,0,1.000,0.993,1.000,-62.76,154.50,-31.50,OPEN,0
672346.428,3,0,0,1.000,1.000,1.000,-62.98,154.72,-31.50,OPEN,0
672346.432,3,0,0,1.000,1.000,1.000,-63.19,154.93,-31.50,OPEN,1
672346.436,3,0,0,1.000,1.000,1.000,-63.47,155.22,-31.50,OPEN,0
672346.440,3,0,0,1.000,1.000,1.000,-63.69,155.43,-31.50,OPEN,0
672346.444,3,0,0,1.000,1.000,1.000,-63.95,155.69,-31.50,OPEN,0
672346.449,3,0,0,1.000,1.000,1.000,-64.21,155.95,-31.50,OPEN,0
672346.452,3,0,0,1.000,1.000,1.000,-64.43,156.17,-31.50,OPEN,0
672346.456,3,0,0,1.000,1.000,1.000,-64.66,156.40,-31.50,OPEN,0
672346.460,3,0,0,1.000,1.000,1.000,-64.88,156.62,-31.50,OPEN,0
672346.464,3,0,0,1.000,1.000,1.000,-65.10,156.84,-31.50,OPEN,0
672346.467,3,0,0,1.000,1.000,1.000,-65.33,157.07,-31.50,OPEN,0
672346.472,3,0,0,1.000,1.000,1.000,-65.58,157.32,-31.50,OPEN,0
672346.476,3,0,0,1.000,1.000,1.000,-65.82,157.56,-31.50,OPEN,0
672346.480,3,0,0,1.000,1.000,1.000,-66.07,157.81,-31.50,OPEN,0
672346.484,3,0,0,1.000,1.000,1.000,-66.32,158.06,-31.50,OPEN,0
672346.487,3,0,0,1.000,1.000,1.000,-66.54,158.28,-31.50,OPEN,0
672346.491,3,0,0,1.000,1.000,1.000,-66.76,158.50,-31.50,OPEN,0
672346.495,3,0,0,1.000,1.000,1.000,-66.97,158.71,-31.50,OPEN,0
672346.498,3,0,0,1.000,1.000,1.000,-67.18,158.92,-31.50,OPEN,0
672346.502,3,0,0,1.000,1.000,1.000,-67.40,159.14,-31.50,OPEN,0
672346.505,3,0,0,1.000,1.000,1.000,-67.62,159.36,-31.50,OPEN,0
672346.509,3,0,0,1.000,1.000,1.000,-67.84,159.58,-31.50,OPEN,0
672346.513,3,0,0,1.000,1.000,1.000,-68.08,159.82,-31.50,OPEN,0
672346.518,3,0,0,1.000,1.000,1.000,-68.35,160.09,-31.50,OPEN,0
672346.523,3,0,0,1.000,1.000,1.000,-68.64,160.39,-31.50,OPEN,0
672346.526,3,0,0,1.000,1.000,1.000,-68.85,160.60,-31.50,OPEN,0
672346.530,3,0,0,1.000,1.000,1.000,-69.06,160.80,-31.50,OPEN,0
672346.533,3,0,0,1.000,1.000,1.000,-69.27,161.01,-31.50,OPEN,1
672346.537,3,0,0,1.000,1.000,1.000,-69.50,161.24,-31.50,OPEN,0
672346.541,3,0,0,1.000,1.000,1.000,-69.74,161.48,-31.50,OPEN,0
672346.545,3,0,0,1.000,1.000,1.000,-69.99,161.73,-31.50,OPEN,0
672346.549,3,0,0,1.000,1.000,1.000,-70.24,161.98,-31.50,OPEN,0
672346.554,3,0,0,1.000,1.000,1.000,-70.53,162.27,-31.50,OPEN,0
672346.560,3,0,0,1.000,1.000,1.000,-70.87,162.61,-31.50,OPEN,0
672346.563,3,0,0,1.000,1.000,1.000,-71.10,162.84,-31.50,OPEN,0
672346.567,3,0,0,1.000,1.000,1.000,-71.32,163.06,-31.50,OPEN,0
672346.571,3,0,0,1.000,1.000,1.000,-71.55,163.29,-31.50,OPEN,0
672346.575,3,0,0,1.000,1.000,1.000,-71.76,163.50,-31.50,OPEN,0
672346.578,3,0,0,1.000,1.000,1.000,-71.98,163.72,-31.50,OPEN,0
672346.582,3,0,0,1.000,1.000,1.000,-72.19,163.93,-31.50,OPEN,0
672346.585,3,0,0,1.000,1.000,1.000,-72.41,164.15,-31.50,OPEN,0
672346.589,3,0,0,1.000,1.000,1.000,-72.62,164.36,-31.50,OPEN,0
672346.593,3,0,0,1.000,1.000,1.000,-72.84,164.58,-31.50,OPEN,0
672346.596,3,0,0,1.000,1.000,1.000,-73.06,164.81,-31.50,OPEN,0
672346.600,3,0,0,1.000,1.000,1.000,-73.29,165.03,-31.50,OPEN,0
672346.604,3,0,0,1.000,1.000,1.000,-73.51,165.25,-31.50,OPEN,0
672346.608,3,0,0,1.000,1.000,1.000,-73.75,165.49,-31.50,OPEN,0
672346.611,3,0,0,1.000,1.000,1.000,-73.97,165.71,-31.50,OPEN,0
672346.615,3,0,0,1.000,1.000,1.000,-74.18,165.92,-31.50,OPEN,0
672346.618,3,0,0,1.000,1.000,1.000,-74.39,166.13,-31.50,OPEN,0
672346.622,3,0,0,1.000,1.000,1.000,-74.62,166.36,-31.50,OPEN,0
672346.626,3,0,0,1.000,1.000,1.000,-74.85,166.59,-31.50,OPEN,0
672346.629,3,0,0,1.000,1.000,1.000,-75.05,166.79,-31.50,OPEN,0
672346.633,3,0,0,1.000,1.000,1.000,-75.25,166.99,-31.50,OPEN,0
672346.636,3,0,0,1.000,1.000,1.000,-75.46,167.20,-31.50,OPEN,1
672346.641,3,0,0,1.000,1.000,1.000,-75.73,167.47,-31.50,OPEN,0
672346.644,3,0,0,1.000,1.000,1.000,-75.96,167.70,-31.50,OPEN,0
672346.650,3,0,0,1.000,1.000,1.000,-76.28,168.02,-31.50,OPEN,0
672346.655,3,0,0,1.000,1.000,1.000,-76.57,168.31,-31.50,OPEN,0
672346.659,3,0,0,1.000,1.000,1.000,-76.80,168.54,-31.50,OPEN,0
672346.662,3,0,0,1.000,1.000,1.000,-77.01,168.75,-31.50,OPEN,0
672346.667,3,0,0,1.000,1.000,1.000,-77.30,169.04,-31.50,OPEN,0
672346.673,3,0,0,1.000,1.000,1.000,-77.66,169.40,-31.50,OPEN,0
672346.678,3,0,0,1.000,1.000,1.000,-77.95,169.69,-31.50,OPEN,0
672346.683,3,0,0,1.000,1.000,1.000,-78.25,169.99,-31.50,OPEN,0
672346.688,3,0,0,1.000,1.000,1.000,-78.59,170.33,-31.50,OPEN,0
672346.693,3,0,0,1.000,1.000,1.000,-78.85,170.59,-31.50,OPEN,0
672346.697,3,0,0,1.000,1.000,1.000,-79.10,170.84,-31.50,OPEN,0
672346.701,3,0,0,1.000,1.000,1.000,-79.34,171.08,-31.50,OPEN,0
672346.705,3,0,0,1.000,1.000,1.000,-79.57,171.31,-31.50,OPEN,0
672346.708,3,0,0,1.000,1.000,1.000,-79.79,171.53,-31.50,OPEN,0
672346.712,3,0,0,1.000,1.000,1.000,-80.00,171.74,-31.50,OPEN,0
672346.716,3,0,0,1.000,1.000,1.000,-80.24,171.98,-31.50,OPEN,0
672346.719,3,0,0,1.000,1.000,1.000,-80.45,172.19,-31.50,OPEN,0
672346.723,3,0,0,1.000,1.000,1.000,-80.67,172.41,-31.50,OPEN,0
672346.727,3,0,0,1.000,1.000,1.000,-80.88,172.63,-31.50,OPEN,0
672346.730,3,0,0,1.000,1.000,1.000,-81.09,172.83,-31.50,OPEN,0
672346.733,3,0,0,1.000,1.000,1.000,-81.29,173.03,-31.50,OPEN,0
672346.737,3,0,0,1.000,1.000,1.000,-81.50,173.24,-31.50,OPEN,1
672346.740,3,0,0,1.000,1.000,1.000,-81.72,173.46,-31.50,OPEN,0
672346.744,3,0,0,1.000,1.000,1.000,-81.95,173.70,-31.50,OPEN,0
672346.748,3,0,0,1.000,1.000,1.000,-82.16,173.90,-31.50,OPEN,0
672346.751,3,0,0,1.000,1.000,1.000,-82.37,174.11,-31.50,OPEN,0
672346.755,3,0,0,1.000,1.000,1.000,-82.58,174.33,-31.50,OPEN,0
672346.759,3,0,0,1.000,1.000,1.000,-82.83,174.57,-31.50,OPEN,0
672346.763,3,0,0,1.000,1.000,1.000,-83.06,174.80,-31.50,OPEN,0
672346.767,3,0,0,1.000,1.000,1.000,-83.29,175.03,-31.50,OPEN,0
672346.770,3,0,0,1.000,1.000,1.000,-83.51,175.25,-31.50,OPEN,0
672346.774,3,0,0,1.000,1.000,1.000,-83.72,175.46,-31.50,OPEN,0
672346.777,3,0,0,1.000,1.000,1.000,-83.93,175.67,-31.50,OPEN,0
672346.781,3,0,0,1.000,1.000,1.000,-84.18,175.92,-31.50,OPEN,0
672346.785,3,0,0,1.000,1.000,1.000,-84.40,176.14,-31.50,OPEN,0
672346.789,3,0,0,1.000,1.000,1.000,-84.62,176.36,-31.50,OPEN,0
672346.793,3,0,0,1.000,1.000,1.000,-84.87,176.61,-31.50,OPEN,0
672346.797,3,0,0,1.000,1.000,1.000,-85.09,176.83,-31.50,OPEN,0
672346.800,3,0,0,1.000,1.000,1.000,-85.28,177.02,-31.50,OPEN,0
672346.804,3,0,0,1.000,1.000,1.000,-85.50,177.24,-31.50,OPEN,0
672346.808,3,0,0,1.000,1.000,1.000,-85.77,177.52,-31.50,OPEN,0
672346.813,3,0,0,1.000,1.000,1.000,-86.08,177.82,-31.50,OPEN,0
672346.818,3,0,0,1.000,1.000,1.000,-86.36,178.10,-31.50,OPEN,0
672346.822,3,0,0,1.000,1.000,1.000,-86.64,178.38,-31.50,OPEN,0
672346.827,3,0,0,1.000,1.000,1.000,-86.90,178.64,-31.50,OPEN,0
672346.831,3,0,0,1.000,1.000,1.000,-87.16,178.90,-31.50,OPEN,0
672346.835,3,0,0,1.000,1.000,1.000,-87.40,179.14,-31.50,OPEN,0
672346.839,3,0,0,1.000,1.000,1.000,-87.65,179.39,-31.50,OPEN,1
672346.844,3,0,0,1.000,1.000,1.000,-87.90,179.64,-31.50,OPEN,0
672346.847,3,0,0,1.000,1.000,1.000,-88.14,179.88,-31.50,OPEN,0
672346.851,3,0,0,1.000,1.000,1.000,-88.36,180.00,-31.50,OPEN,0
672346.856,3,0,0,1.000,1.000,1.000,-88.62,180.00,-31.50,OPEN,0
672346.859,3,0,0,1.000,1.000,1.000,-88.83,180.00,-31.50,OPEN,0
672346.863,3,0,0,1.000,1.000,1.000,-89.06,180.00,-31.50,OPEN,0
672346.866,3,0,0,1.000,1.000,1.000,-89.27,180.00,-31.50,OPEN,0
672346.870,3,0,0,1.000,1.000,1.000,-89.49,180.00,-31.50,OPEN,0
672346.874,3,0,0,1.000,1.000,1.000,-89.71,180.00,-31.50,OPEN,0
672346.878,3,0,0,0.999,0.999,1.000,-89.97,180.00,-31.50,OPEN,0
672346.882,3,0,0,0.998,0.986,1.000,-90.00,180.00,-31.50,OPEN,0
672346.888,3,0,0,0.987,0.544,1.000,-90.00,180.00,-31.50,OPEN,0
672346.892,3,0,0,0.807,0.859,1.000,-90.00,180.00,-31.50,OPEN,0
672346.896,3,0,0,0.489,0.987,1.000,-90.00,180.00,-31.50,OPEN,0
672346.899,3,0,0,0.795,0.994,1.000,-90.00,180.00,-31.50,OPEN,0
672346.903,3,0,0,0.951,1.000,1.000,-90.00,180.00,-31.50,OPEN,0
672346.907,3,0,0,0.999,1.000,1.000,-90.00,180.00,-31.50,OPEN,0
672346.910,3,0,0,0.999,1.000,1.000,-90.00,180.00,-31.50,OPEN,0
672346.914,3,0,0,1.000,1.000,1.000,-90.00,180.00,-31.50,OPEN,0
672346.917,3,0,0,1.000,1.000,1.000,-90.00,180.00,-31.50,OPEN,0
672346.921,3,0,0,1.000,1.000,1.000,-90.00,180.00,-31.50,OPEN,0
672346.924,0,0,0,1.000,1.000,1.000,-90.00,180.00,-31.50,OPEN,0
672346.928,0,0,0,1.000,1.000,1.000,-90.00,180.00,-31.50,OPEN,0
672346.932,0,0,0,1.000,1.000,1.000,-90.00,180.00,-31.50,OPEN,0
672346.935,0,0,0,1.000,1.000,1.000,-90.00,180.00,-31.50,OPEN,0
672346.939,0,0,0,1.000,1.000,1.000,-90.00,180.00,-31.50,OPEN,0
672346.942,0,0,0,1.000,1.000,1.000,-90.00,180.00,-31.50,OPEN,1
672346.946,0,0,0,1.000,1.000,1.000,-90.00,180.00,-31.50,OPEN,0
672346.951,0,0,0,1.000,1.000,1.000,-90.00,180.00,-31.50,OPEN,0
672346.955,0,0,0,1.000,1.000,1.000,-90.00,180.00,-31.50,OPEN,0
672346.959,0,0,0,1.000,1.000,1.000,-90.00,180.00,-31.50,OPEN,0
672346.963,0,0,0,1.000,1.000,1.000,-90.00,180.00,-31.50,OPEN,0
672346.967,0,0,0,1.000,1.000,1.000,-90.00,180.00,-31.50,OPEN,0
672346.971,0,0,0,1.000,1.000,1.000,-90.00,180.00,-31.50,OPEN,0
672346.974,0,0,0,1.000,1.000,1.000,-90.00,180.00,-31.50,OPEN,0
672346.978,0,0,0,1.000,1.000,1.000,-90.00,180.00,-31.50,OPEN,0
672346.981,0,0,0,1.000,1.000,1.000,-90.00,180.00,-31.50,OPEN,0
672346.985,0,0,0,1.000,1.000,1.000,-90.00,180.00,-31.50,OPEN,0
672346.989,0,0,0,1.000,1.000,1.000,-90.00,180.00,-31.50,OPEN,0
672346.993,0,0,0,1.000,1.000,1.000,-90.00,180.00,-31.50,OPEN,0
672346.998,0,0,0,1.000,1.000,1.000,-90.00,180.00,-31.50,OPEN,0
672347.002,0,0,0,1.000,1.000,1.000,-90.00,180.00,-31.50,OPEN,0
672347.006,0,0,0,1.000,1.000,1.000,-90.00,180.00,-31.50,OPEN,0
672347.010,0,0,0,1.000,1.000,1.000,-90.00,180.00,-31.50,OPEN,0
672347.013,0,0,0,1.000,1.000,1.000,-90.00,180.00,-31.50,OPEN,0
672347.017,0,0,0,1.000,1.000,1.000,-90.00,180.00,-31.50,OPEN,0
672347.021,0,0,0,1.000,1.000,1.000,-90.00,180.00,-31.50,OPEN,0
672347.026,0,0,0,1.000,1.000,1.000,-90.00,180.00,-31.50,OPEN,0
672347.030,0,0,0,1.000,1.000,1.000,-90.00,180.00,-31.50,OPEN,0
672347.033,0,0,0,1.000,1.000,1.000,-90.00,180.00,-31.50,OPEN,0
672347.037,0,0,0,1.000,1.000,1.000,-90.00,180.00,-31.50,OPEN,0
672347.041,0,0,0,1.000,1.000,1.000,-90.00,180.00,-31.50,OPEN,0
672347.045,0,0,0,1.000,1.000,1.000,-90.00,180.00,-31.50,OPEN,0
672347.049,0,0,0,1.000,1.000,1.000,-90.00,180.00,-31.50,OPEN,0
672347.052,0,0,0,1.000,1.000,1.000,-90.00,180.00,-31.50,OPEN,0
672347.056,0,0,0,1.000,1.000,1.000,-90.00,180.00,-31.50,OPEN,0
672347.060,0,0,0,1.000,1.000,1.000,-90.00,180.00,-31.50,OPEN,0
672347.064,0,0,0,1.000,1.000,1.000,-90.00,180.00,-31.50,OPEN,0
672347.067,0,0,0,1.000,1.000,1.000,-90.00,180.00,-31.50,OPEN,0
672347.070,0,0,0,1.000,1.000,1.000,-90.00,180.00,-31.50,OPEN,0
672347.074,0,0,0,1.000,1.000,1.000,-90.00,180.00,-31.50,OPEN,0
672347.078,0,0,0,1.000,1.000,1.000,-90.00,180.00,-31.50,OPEN,0
672347.081,0,0,0,1.000,1.000,1.000,-90.00,180.00,-31.50,OPEN,0
672347.086,0,0,0,1.000,1.000,1.000,-90.00,180.00,-31.50,OPEN,0
672347.089,0,0,0,1.000,1.000,1.000,-90.00,180.00,-31.50,OPEN,0
672347.093,0,0,0,1.000,1.000,1.000,-90.00,180.00,-31.50,OPEN,0
672347.097,0,0,0,1.000,1.000,1.000,-90.00,180.00,-31.50,OPEN,0
672347.105,0,0,0,1.000,1.000,1.000,-90.00,180.00,-31.50,OPEN,0
672347.114,0,0,0,1.000,1.000,1.000,-90.00,180.00,-31.50,OPEN,0
672347.128,0,0,0,1.000,1.000,1.000,-90.00,180.00,-31.50,OPEN,0
672347.139,0,0,0,1.000,1.000,1.000,-90.00,180.00,-31.50,OPEN,0
672347.145,0,0,0,1.000,1.000,1.000,-90.00,180.00,-31.50,OPEN,0
672347.156,0,0,0,1.000,1.000,1.000,-90.00,180.00,-31.50,OPEN,0
672347.160,0,0,0,1.000,1.000,1.000,-90.00,180.00,-31.50,OPEN,0
672347.164,0,0,0,1.000,1.000,1.000,-90.00,180.00,-31.50,OPEN,0
672347.168,0,0,0,1.000,1.000,1.000,-90.00,180.00,-31.50,OPEN,0
672347.172,0,0,0,1.000,1.000,1.000,-90.00,180.00,-31.50,OPEN,0
672347.175,0,0,0,1.000,1.000,1.000,-90.00,180.00,-31.50,OPEN,0
672347.179,0,0,0,1.000,1.000,1.000,-90.00,180.00,-31.50,OPEN,0
672347.183,0,0,0,1.000,1.000,1.000,-90.00,180.00,-31.50,OPEN,0
672347.186,0,0,0,1.000,1.000,1.000,-90.00,180.00,-31.50,OPEN,0
672347.190,0,0,0,1.000,1.000,1.000,-90.00,180.00,-31.50,OPEN,0
672347.194,0,0,0,1.000,1.000,1.000,-90.00,180.00,-31.50,OPEN,0
672347.197,0,0,0,1.000,1.000,1.000,-90.00,180.00,-31.50,OPEN,0
672347.201,0,0,0,1.000,1.000,1.000,-90.00,180.00,-31.50,OPEN,0
672347.205,0,0,0,1.000,1.000,1.000,-90.00,180.00,-31.50,OPEN,0
672347.208,0,0,0,1.000,1.000,1.000,-90.00,180.00,-31.50,OPEN,0
672347.212,0,0,0,1.000,1.000,1.000,-90.00,180.00,-31.50,OPEN,0
672347.216,0,0,0,1.000,1.000,1.000,-90.00,180.00,-31.50,OPEN,0
672347.220,0,0,0,1.000,1.000,1.000,-90.00,180.00,-31.50,OPEN,0
672347.224,0,0,0,1.000,1.000,1.000,-90.00,180.00,-31.50,OPEN,0
672347.229,0,0,0,1.000,1.000,1.000,-90.00,180.00,-31.50,OPEN,0
672347.233,0,0,0,1.000,1.000,1.000,-90.00,180.00,-31.50,OPEN,0
672347.237,0,0,0,1.000,1.000,1.000,-90.00,180.00,-31.50,OPEN,0
672347.240,0,0,0,1.000,1.000,1.000,-90.00,180.00,-31.50,OPEN,0
672347.244,0,0,0,1.000,1.000,1.000,-90.00,180.00,-31.50,OPEN,0
672347.248,0,0,0,1.000,1.000,1.000,-90.00,180.00,-31.50,OPEN,0
672347.252,0,0,0,1.000,1.000,1.000,-90.00,180.00,-31.50,OPEN,0
672347.255,0,0,0,1.000,1.000,1.000,-90.00,180.00,-31.50,OPEN,0
672347.259,0,0,0,1.000,1.000,1.000,-90.00,180.00,-31.50,OPEN,0
672347.263,0,0,0,1.000,1.000,1.000,-90.00,180.00,-31.50,OPEN,0
672347.266,0,0,0,1.000,1.000,1.000,-90.00,180.00,-31.50,OPEN,0
672347.270,0,0,0,1.000,1.000,1.000,-90.00,180.00,-31.50,OPEN,0
672347.274,0,0,0,1.000,1.000,1.000,-90.00,180.00,-31.50,OPEN,0
672347.277,0,0,0,1.000,1.000,1.000,-90.00,180.00,-31.50,OPEN,0
672347.281,0,0,0,1.000,1.000,1.000,-90.00,180.00,-31.50,OPEN,0
672347.285,0,0,0,1.000,1.000,1.000,-90.00,180.00,-31.50,OPEN,0
672347.289,0,0,0,1.000,1.000,1.000,-90.00,180.00,-31.50,OPEN,0
672347.293,0,0,0,1.000,1.000,1.000,-90.00,180.00,-31.50,OPEN,0
672347.297,0,0,0,1.000,1.000,1.000,-90.00,180.00,-31.50,OPEN,0
672347.301,0,0,0,1.000,1.000,1.000,-90.00,180.00,-31.50,OPEN,0
