t,hand,elbow,shoulder,p_hand,p_elbow,p_shoulder,J2,J3,J6,grip_state,cmd_sent
672716.680,0,0,0,0.805,1.000,1.000,-90.00,180.00,0.00,OPEN,0
672716.702,0,0,0,0.711,1.000,1.000,-90.00,180.00,0.00,OPEN,0
672716.739,0,0,0,0.996,1.000,1.000,-90.00,180.00,0.00,OPEN,0
672716.789,0,0,0,1.000,1.000,1.000,-90.00,180.00,0.00,OPEN,0
672716.839,0,0,0,1.000,1.000,1.000,-90.00,180.00,0.00,OPEN,0
672716.889,0,0,0,1.000,1.000,1.000,-90.00,180.00,0.00,OPEN,0
672716.939,0,0,0,1.000,1.000,1.000,-90.00,180.00,0.00,OPEN,0
672716.989,0,0,0,1.000,1.000,1.000,-90.00,180.00,0.00,OPEN,0
672717.039,0,0,0,1.000,1.000,1.000,-90.00,180.00,0.00,OPEN,0
672717.089,0,0,0,1.000,1.000,1.000,-90.00,180.00,0.00,OPEN,0
672717.139,0,0,0,1.000,1.000,1.000,-90.00,180.00,0.00,OPEN,0
672717.188,0,0,0,1.000,1.000,1.000,-90.00,180.00,0.00,OPEN,0
672717.239,0,0,0,1.000,1.000,1.000,-90.00,180.00,0.00,OPEN,0
672717.289,1,0,0,1.000,1.000,1.000,-90.00,180.00,0.00,OPEN,0
672717.339,1,0,0,1.000,1.000,1.000,-90.00,180.00,0.00,OPEN,0
672717.389,1,0,0,1.000,1.000,1.000,-90.00,180.00,0.00,OPEN,0
672717.439,1,0,0,1.000,1.000,1.000,-90.00,180.00,0.00,OPEN,0
672717.489,1,0,0,1.000,1.000,1.000,-90.00,180.00,0.00,OPEN,0
672717.539,1,0,0,1.000,1.000,1.000,-90.00,180.00,0.00,OPEN,0
672717.589,1,0,0,1.000,1.000,1.000,-90.00,180.00,0.00,OPEN,0
672717.639,1,0,0,1.000,1.000,1.000,-90.00,180.00,0.00,OPEN,0
672717.690,1,0,0,1.000,1.000,1.000,-90.00,180.00,0.00,OPEN,0
672717.739,1,0,0,1.000,1.000,1.000,-90.00,180.00,0.00,OPEN,0
672717.789,1,0,0,1.000,1.000,1.000,-90.00,180.00,0.00,OPEN,0
672717.839,1,0,0,1.000,1.000,1.000,-90.00,180.00,0.00,OPEN,0
672717.889,1,0,0,1.000,1.000,1.000,-90.00,180.00,0.00,OPEN,0
672717.939,1,0,0,1.000,1.000,1.000,-90.00,180.00,0.00,OPEN,0
672717.989,1,0,0,1.000,1.000,1.000,-90.00,180.00,0.00,OPEN,0
672718.039,1,0,0,1.000,1.000,1.000,-90.00,180.00,0.00,OPEN,0
672718.090,1,0,0,1.000,1.000,1.000,-90.00,180.00,0.00,OPEN,0
672718.139,1,0,0,1.000,1.000,1.000,-90.00,180.00,0.00,OPEN,0
672718.191,1,0,0,1.000,1.000,1.000,-90.00,180.00,0.00,OPEN,0
672718.239,1,0,0,1.000,1.000,1.000,-90.00,180.00,0.00,OPEN,0
672718.289,1,0,0,1.000,1.000,1.000,-90.00,180.00,0.00,OPEN,0
672718.339,1,0,0,1.000,1.000,1.000,-90.00,180.00,0.00,OPEN,0
672718.391,1,0,0,1.000,1.000,1.000,-90.00,180.00,0.00,OPEN,0
672718.440,1,0,0,1.000,1.000,1.000,-90.00,180.00,0.00,OPEN,0
672718.489,1,0,0,1.000,1.000,1.000,-90.00,180.00,0.00,OPEN,0
672718.539,1,0,0,1.000,1.000,1.000,-90.00,180.00,0.00,OPEN,0
672718.589,1,0,0,1.000,1.000,1.000,-90.00,180.00,0.00,OPEN,0
672718.639,1,0,0,1.000,1.000,1.000,-90.00,180.00,0.00,OPEN,0
672718.689,1,0,0,1.000,1.000,1.000,-90.00,180.00,0.00,OPEN,0
672718.739,1,0,0,1.000,1.000,1.000,-90.00,180.00,0.00,OPEN,0
672718.788,1,0,0,1.000,1.000,1.000,-90.00,180.00,0.00,OPEN,0
672718.839,1,0,0,1.000,1.000,1.000,-90.00,180.00,0.00,OPEN,0
672718.889,1,0,0,1.000,1.000,1.000,-90.00,180.00,0.00,OPEN,0
672718.939,1,0,0,1.000,1.000,1.000,-90.00,180.00,0.00,OPEN,0
672718.989,1,0,0,1.000,1.000,1.000,-90.00,180.00,0.00,OPEN,0
672719.038,1,0,0,1.000,1.000,1.000,-90.00,180.00,0.00,OPEN,0
672719.088,1,0,0,1.000,1.000,1.000,-90.00,180.00,0.00,OPEN,0
672719.138,1,0,0,1.000,1.000,1.000,-90.00,180.00,0.00,OPEN,0
672719.189,1,0,0,1.000,1.000,1.000,-90.00,180.00,0.00,OPEN,0
672719.239,1,0,0,1.000,1.000,1.000,-90.00,180.00,0.00,OPEN,0
672719.289,1,0,0,1.000,1.000,1.000,-90.00,180.00,0.00,OPEN,0
672719.339,1,0,0,1.000,1.000,1.000,-90.00,180.00,0.00,OPEN,0
672719.389,1,0,0,1.000,1.000,1.000,-90.00,180.00,0.00,OPEN,0
672719.439,1,0,0,1.000,1.000,1.000,-90.00,180.00,0.00,OPEN,0
672719.489,1,0,0,1.000,1.000,1.000,-90.00,180.00,0.00,OPEN,0
672719.539,1,0,0,1.000,1.000,1.000,-90.00,180.00,0.00,OPEN,0
672719.589,1,0,0,1.000,1.000,1.000,-90.00,180.00,0.00,OPEN,0
672719.639,1,0,0,1.000,1.000,1.000,-90.00,180.00,0.00,OPEN,0
672719.689,1,0,0,1.000,1.000,1.000,-90.00,180.00,0.00,OPEN,0
672719.739,1,0,0,1.000,1.000,1.000,-90.00,180.00,0.00,OPEN,0
672719.789,1,0,0,1.000,1.000,1.000,-90.00,180.00,0.00,OPEN,0
672719.851,1,0,0,1.000,1.000,1.000,-90.00,180.00,0.00,OPEN,0
672719.889,1,0,0,1.000,1.000,1.000,-90.00,180.00,0.00,OPEN,0
672719.939,1,0,0,1.000,1.000,1.000,-90.00,180.00,0.00,OPEN,0
672719.989,1,0,0,1.000,1.000,1.000,-90.00,180.00,0.00,OPEN,0
672720.039,1,0,0,1.000,1.000,1.000,-90.00,180.00,0.00,OPEN,0
672720.089,1,0,0,1.000,1.000,1.000,-90.00,180.00,0.00,OPEN,0
672720.139,1,0,0,1.000,1.000,1.000,-90.00,180.00,0.00,OPEN,0
672720.189,1,0,0,1.000,1.000,1.000,-90.00,180.00,0.00,OPEN,0
672720.238,1,0,0,1.000,1.000,1.000,-90.00,180.00,0.00,OPEN,0
672720.288,1,0,0,1.000,1.000,1.000,-90.00,180.00,0.00,OPEN,0
672720.338,1,0,0,1.000,1.000,1.000,-90.00,180.00,0.00,OPEN,0
672720.389,1,0,0,1.000,1.000,1.000,-90.00,180.00,0.00,OPEN,0
672720.439,1,0,0,1.000,1.000,1.000,-90.00,180.00,0.00,OPEN,0
672720.489,1,0,0,1.000,1.000,1.000,-90.00,180.00,0.00,OPEN,0
672720.539,1,0,0,1.000,1.000,1.000,-90.00,180.00,0.00,OPEN,0
672720.589,1,0,0,1.000,1.000,1.000,-90.00,180.00,0.00,OPEN,0
672720.639,1,0,0,1.000,1.000,1.000,-90.00,180.00,0.00,OPEN,0
672720.689,1,0,0,1.000,1.000,1.000,-90.00,180.00,0.00,OPEN,0
672720.739,1,0,0,1.000,1.000,1.000,-90.00,180.00,0.00,OPEN,0
672720.789,1,0,0,1.000,1.000,1.000,-90.00,180.00,0.00,OPEN,0
672720.838,1,0,0,1.000,1.000,1.000,-90.00,180.00,0.00,OPEN,0
672720.889,1,0,0,1.000,1.000,1.000,-90.00,180.00,0.00,OPEN,0
672720.939,1,0,0,1.000,1.000,1.000,-90.00,180.00,0.00,OPEN,0
672720.989,1,0,0,1.000,1.000,1.000,-90.00,180.00,0.00,OPEN,0
672721.039,1,0,0,1.000,1.000,1.000,-90.00,180.00,0.00,OPEN,0
672721.089,1,0,0,1.000,1.000,1.000,-90.00,180.00,0.00,OPEN,0
672721.140,1,0,0,1.000,1.000,1.000,-90.00,180.00,0.00,OPEN,0
672721.188,1,0,0,1.000,1.000,1.000,-90.00,180.00,0.00,OPEN,0
672721.239,1,0,0,1.000,1.000,1.000,-90.00,180.00,0.00,OPEN,0
672721.289,1,0,0,1.000,1.000,1.000,-90.00,180.00,0.00,OPEN,0
672721.338,1,0,0,1.000,1.000,1.000,-90.00,180.00,0.00,OPEN,0
672721.389,1,0,0,1.000,1.000,1.000,-90.00,180.00,0.00,OPEN,0
672721.439,1,0,0,1.000,1.000,1.000,-90.00,180.00,0.00,OPEN,0
672721.489,1,0,0,1.000,1.000,1.000,-90.00,180.00,0.00,OPEN,0
672721.539,1,0,0,1.000,1.000,1.000,-90.00,180.00,0.00,OPEN,0
672721.589,1,0,0,1.000,1.000,1.000,-90.00,180.00,0.00,OPEN,0
672721.639,1,0,0,1.000,1.000,1.000,-90.00,180.00,0.00,OPEN,0
672721.689,1,0,0,1.000,1.000,1.000,-90.00,180.00,0.00,OPEN,0
672721.739,1,0,0,1.000,1.000,1.000,-90.00,180.00,0.00,OPEN,0
672721.789,1,0,0,1.000,1.000,1.000,-90.00,180.00,0.00,OPEN,0
672721.839,1,0,0,1.000,0.999,1.000,-90.00,180.00,0.00,OPEN,0
672721.889,1,0,0,1.000,0.997,1.000,-90.00,180.00,0.00,OPEN,0
672721.939,1,0,0,1.000,0.994,1.000,-90.00,180.00,0.00,OPEN,0
672721.989,1,0,0,1.000,0.998,1.000,-90.00,180.00,0.00,OPEN,0
672722.039,1,0,0,1.000,0.999,1.000,-90.00,180.00,0.00,OPEN,0
672722.088,1,0,0,1.000,1.000,1.000,-90.00,180.00,0.00,OPEN,0
672722.139,1,0,0,1.000,1.000,1.000,-90.00,180.00,0.00,OPEN,0
672722.188,1,0,0,1.000,1.000,1.000,-90.00,180.00,0.00,OPEN,0
672722.239,1,0,0,1.000,1.000,1.000,-90.00,180.00,0.00,OPEN,0
672722.289,1,0,0,1.000,1.000,1.000,-90.00,180.00,0.00,OPEN,0
672722.339,1,0,0,1.000,1.000,1.000,-90.00,180.00,0.00,OPEN,0
672722.389,1,0,0,1.000,1.000,1.000,-90.00,180.00,0.00,OPEN,0
672722.439,1,0,0,1.000,1.000,1.000,-90.00,180.00,0.00,OPEN,0
672722.489,1,0,0,1.000,1.000,1.000,-90.00,180.00,0.00,OPEN,0
672722.539,1,0,0,0.540,1.000,1.000,-90.00,180.00,0.00,OPEN,0
672722.589,1,0,0,0.866,1.000,1.000,-90.00,180.00,0.00,OPEN,0
672722.639,1,0,0,0.570,1.000,1.000,-90.00,180.00,0.00,OPEN,0
672722.689,1,0,0,0.697,1.000,1.000,-90.00,180.00,0.00,OPEN,0
672722.739,1,0,0,0.604,1.000,1.000,-90.00,180.00,0.00,OPEN,0
672722.789,1,0,0,0.676,1.000,1.000,-90.00,180.00,0.00,OPEN,0
672722.838,1,0,0,0.688,1.000,1.000,-90.00,180.00,0.00,OPEN,0
672722.889,1,0,0,0.960,1.000,1.000,-90.00,180.00,0.00,OPEN,0
672722.939,1,0,0,1.000,1.000,1.000,-90.00,180.00,0.00,OPEN,0
672722.989,1,0,0,1.000,1.000,1.000,-90.00,180.00,0.00,OPEN,0
672723.038,1,0,0,1.000,1.000,1.000,-90.00,180.00,0.00,OPEN,0
672723.089,0,0,0,1.000,1.000,1.000,-90.00,180.00,0.00,OPEN,0
672723.139,0,0,0,1.000,1.000,1.000,-90.00,180.00,0.00,OPEN,0
672723.189,0,0,0,1.000,1.000,1.000,-90.00,180.00,0.00,OPEN,0
672723.239,0,0,0,1.000,1.000,1.000,-90.00,180.00,0.00,OPEN,0
672723.289,0,0,0,1.000,1.000,1.000,-90.00,180.00,0.00,OPEN,0
672723.339,0,0,0,1.000,1.000,1.000,-90.00,180.00,0.00,OPEN,0
672723.389,0,0,0,1.000,1.000,1.000,-90.00,180.00,0.00,OPEN,0
672723.439,0,0,0,1.000,1.000,1.000,-90.00,180.00,0.00,OPEN,0
672723.489,0,0,0,1.000,1.000,1.000,-90.00,180.00,0.00,OPEN,0
672723.539,0,0,0,1.000,1.000,1.000,-90.00,180.00,0.00,OPEN,0
672723.588,0,0,0,1.000,1.000,1.000,-90.00,180.00,0.00,OPEN,0
672723.640,0,0,0,1.000,1.000,1.000,-90.00,180.00,0.00,OPEN,0
672723.689,0,0,0,1.000,1.000,1.000,-90.00,180.00,0.00,OPEN,0
672723.739,0,0,0,1.000,1.000,1.000,-90.00,180.00,0.00,OPEN,0
672723.794,0,0,0,1.000,1.000,1.000,-90.00,180.00,0.00,OPEN,0
672723.839,0,0,0,1.000,1.000,1.000,-90.00,180.00,0.00,OPEN,0
672723.889,0,0,0,1.000,1.000,1.000,-90.00,180.00,0.00,OPEN,0
672723.939,0,0,0,1.000,1.000,1.000,-90.00,180.00,0.00,OPEN,0
672723.989,0,0,0,1.000,1.000,1.000,-90.00,180.00,0.00,OPEN,0
672724.039,0,0,0,1.000,1.000,1.000,-90.00,180.00,0.00,OPEN,0
672724.089,0,0,0,1.000,1.000,1.000,-90.00,180.00,0.00,OPEN,0
672724.138,0,0,0,1.000,1.000,1.000,-90.00,180.00,0.00,OPEN,0
672724.189,0,0,0,1.000,1.000,1.000,-90.00,180.00,0.00,OPEN,0
672724.239,0,0,0,1.000,1.000,1.000,-90.00,180.00,0.00,OPEN,0
672724.290,0,0,0,0.999,1.000,1.000,-90.00,180.00,0.00,OPEN,0
672724.340,0,0,0,1.000,1.000,1.000,-90.00,180.00,0.00,OPEN,0
672724.390,0,0,0,1.000,1.000,1.000,-90.00,180.00,0.00,OPEN,0
672724.439,0,0,0,1.000,1.000,1.000,-90.00,180.00,0.00,OPEN,0
672724.489,0,0,0,1.000,1.000,1.000,-90.00,180.00,0.00,OPEN,0
672724.539,0,0,0,1.000,1.000,1.000,-90.00,180.00,0.00,OPEN,0
672724.589,0,0,0,1.000,1.000,1.000,-90.00,180.00,0.00,OPEN,0
672724.639,0,0,0,1.000,1.000,1.000,-90.00,180.00,0.00,OPEN,0
672724.689,0,0,0,1.000,1.000,1.000,-90.00,180.00,0.00,OPEN,0
672724.739,0,0,0,1.000,1.000,1.000,-90.00,180.00,0.00,OPEN,0
672724.789,0,0,0,1.000,1.000,1.000,-90.00,180.00,0.00,OPEN,0
672724.839,0,0,0,1.000,1.000,1.000,-90.00,180.00,0.00,OPEN,0
672724.889,0,0,0,1.000,1.000,1.000,-90.00,180.00,0.00,OPEN,0
672724.939,0,0,0,1.000,1.000,1.000,-90.00,180.00,0.00,OPEN,0
672724.989,0,0,0,1.000,1.000,1.000,-90.00,180.00,0.00,OPEN,0
672725.039,0,0,0,1.000,1.000,1.000,-90.00,180.00,0.00,OPEN,0
672725.089,0,0,0,1.000,1.000,1.000,-90.00,180.00,0.00,OPEN,0
672725.139,0,0,0,1.000,1.000,1.000,-90.00,180.00,0.00,OPEN,0
672725.194,0,0,0,1.000,1.000,1.000,-90.00,180.00,0.00,OPEN,0
672725.239,0,0,0,0.999,1.000,1.000,-90.00,180.00,0.00,OPEN,0
672725.289,0,0,0,1.000,1.000,1.000,-90.00,180.00,0.00,OPEN,0
672725.338,0,0,0,1.000,1.000,1.000,-90.00,180.00,0.00,OPEN,0
672725.389,0,0,0,1.000,1.000,1.000,-90.00,180.00,0.00,OPEN,0
672725.438,0,0,0,1.000,1.000,1.000,-90.00,180.00,0.00,OPEN,0
672725.489,0,0,0,1.000,1.000,1.000,-90.00,180.00,0.00,OPEN,0
672725.539,0,0,0,1.000,1.000,1.000,-90.00,180.00,0.00,OPEN,0
672725.589,0,0,0,1.000,1.000,1.000,-90.00,180.00,0.00,OPEN,0
672725.639,0,0,0,1.000,1.000,1.000,-90.00,180.00,0.00,OPEN,0
672725.689,0,0,0,1.000,1.000,1.000,-90.00,180.00,0.00,OPEN,0
672725.739,0,0,0,1.000,1.000,1.000,-90.00,180.00,0.00,OPEN,0
672725.789,0,0,0,1.000,1.000,1.000,-90.00,180.00,0.00,OPEN,0
672725.839,0,0,0,1.000,1.000,1.000,-90.00,180.00,0.00,OPEN,0
672725.888,0,0,0,1.000,1.000,1.000,-90.00,180.00,0.00,OPEN,0
672725.939,0,0,0,1.000,1.000,1.000,-90.00,180.00,0.00,OPEN,0
672725.989,0,0,0,0.999,1.000,1.000,-90.00,180.00,0.00,OPEN,0
672726.039,0,0,0,1.000,1.000,1.000,-90.00,180.00,0.00,OPEN,0
672726.088,0,0,0,1.000,1.000,1.000,-90.00,180.00,0.00,OPEN,0
672726.139,0,0,0,1.000,1.000,1.000,-90.00,180.00,0.00,OPEN,0
672726.189,0,0,0,1.000,1.000,1.000,-90.00,180.00,0.00,OPEN,0
672726.239,0,0,0,1.000,1.000,1.000,-90.00,180.00,0.00,OPEN,0
672726.289,0,0,0,1.000,1.000,1.000,-90.00,180.00,0.00,OPEN,0
672726.339,0,0,0,1.000,1.000,1.000,-90.00,180.00,0.00,OPEN,0
672726.389,0,0,0,1.000,1.000,1.000,-90.00,180.00,0.00,OPEN,0
672726.440,0,0,0,1.000,1.000,1.000,-90.00,180.00,0.00,OPEN,0
672726.489,0,0,0,1.000,1.000,1.000,-90.00,180.00,0.00,OPEN,0
672726.539,0,0,0,1.000,1.000,1.000,-90.00,180.00,0.00,OPEN,0
672726.589,0,0,0,1.000,1.000,1.000,-90.00,180.00,0.00,OPEN,0
672726.654,0,0,0,1.000,1.000,1.000,-90.00,180.00,0.00,OPEN,0
672726.690,0,0,0,1.000,1.000,1.000,-90.00,180.00,0.00,OPEN,0
672726.739,0,0,0,1.000,1.000,1.000,-90.00,180.00,0.00,OPEN,0
672726.789,0,0,0,1.000,1.000,1.000,-90.00,180.00,0.00,OPEN,0
672726.839,0,0,0,1.000,1.000,1.000,-90.00,180.00,0.00,OPEN,0
672726.889,0,0,0,1.000,1.000,1.000,-90.00,180.00,0.00,OPEN,0
672726.939,0,0,0,1.000,1.000,1.000,-90.00,180.00,0.00,OPEN,0
672726.989,0,0,0,1.000,1.000,1.000,-90.00,180.00,0.00,OPEN,0
672727.038,0,0,0,1.000,1.000,1.000,-90.00,180.00,0.00,OPEN,0
672727.089,0,0,0,1.000,1.000,1.000,-90.00,180.00,0.00,OPEN,0
672727.139,0,0,0,1.000,1.000,1.000,-90.00,180.00,0.00,OPEN,0
672727.189,0,0,0,1.000,1.000,1.000,-90.00,180.00,0.00,OPEN,0
672727.239,0,0,0,1.000,1.000,1.000,-90.00,180.00,0.00,OPEN,0
672727.289,0,0,0,1.000,1.000,1.000,-90.00,180.00,0.00,OPEN,0
672727.339,0,0,0,1.000,1.000,1.000,-90.00,180.00,0.00,OPEN,0
672727.389,0,0,0,1.000,1.000,1.000,-90.00,180.00,0.00,OPEN,0
672727.439,0,0,0,1.000,1.000,1.000,-90.00,180.00,0.00,OPEN,0
672727.489,0,0,0,1.000,1.000,1.000,-90.00,180.00,0.00,OPEN,0
672727.539,0,0,0,1.000,1.000,1.000,-90.00,180.00,0.00,OPEN,0
672727.589,0,0,0,1.000,1.000,1.000,-90.00,180.00,0.00,OPEN,0
672727.640,0,0,0,1.000,1.000,1.000,-90.00,180.00,0.00,OPEN,0
672727.688,0,0,0,1.000,1.000,1.000,-90.00,180.00,0.00,OPEN,0
672727.739,0,0,0,1.000,1.000,1.000,-90.00,180.00,0.00,OPEN,0
672727.789,0,0,0,1.000,1.000,1.000,-90.00,180.00,0.00,OPEN,0
672727.839,0,0,0,1.000,1.000,1.000,-90.00,180.00,0.00,OPEN,0
672727.889,0,0,0,1.000,1.000,1.000,-90.00,180.00,0.00,OPEN,0
672727.939,0,0,0,1.000,1.000,1.000,-90.00,180.00,0.00,OPEN,0
672727.989,0,0,0,1.000,1.000,1.000,-90.00,180.00,0.00,OPEN,0
672728.038,0,0,0,1.000,1.000,1.000,-90.00,180.00,0.00,OPEN,0
672728.088,0,0,0,1.000,1.000,1.000,-90.00,180.00,0.00,OPEN,0
672728.140,0,0,0,1.000,1.000,1.000,-90.00,180.00,0.00,OPEN,0
672728.192,0,0,0,1.000,1.000,1.000,-90.00,180.00,0.00,OPEN,0
672728.239,0,0,0,1.000,1.000,1.000,-90.00,180.00,0.00,OPEN,0
672728.289,0,0,0,1.000,1.000,1.000,-90.00,180.00,0.00,OPEN,0
672728.339,0,0,0,1.000,1.000,1.000,-90.00,180.00,0.00,OPEN,0
672728.389,0,0,0,1.000,1.000,1.000,-90.00,180.00,0.00,OPEN,0
672728.439,0,0,0,1.000,1.000,1.000,-90.00,180.00,0.00,OPEN,0
672728.489,0,0,0,1.000,1.000,1.000,-90.00,180.00,0.00,OPEN,0
672728.539,0,0,0,1.000,1.000,1.000,-90.00,180.00,0.00,OPEN,0
672728.588,0,0,0,1.000,1.000,1.000,-90.00,180.00,0.00,OPEN,0
672728.639,0,0,0,1.000,1.000,1.000,-90.00,180.00,0.00,OPEN,0
672728.689,0,0,0,1.000,1.000,1.000,-90.00,180.00,0.00,OPEN,0
672728.739,0,0,0,1.000,1.000,1.000,-90.00,180.00,0.00,OPEN,0
672728.789,0,0,0,1.000,1.000,1.000,-90.00,180.00,0.00,OPEN,0
672728.839,0,0,0,1.000,1.000,1.000,-90.00,180.00,0.00,OPEN,0
672728.889,0,0,0,1.000,1.000,1.000,-90.00,180.00,0.00,OPEN,0
672728.939,0,0,0,1.000,1.000,1.000,-90.00,180.00,0.00,OPEN,0
672728.989,0,0,0,1.000,1.000,1.000,-90.00,180.00,0.00,OPEN,0
672729.039,0,0,0,1.000,1.000,1.000,-90.00,180.00,0.00,OPEN,0
672729.089,0,0,0,1.000,1.000,1.000,-90.00,180.00,0.00,OPEN,0
672729.139,0,0,0,1.000,1.000,1.000,-90.00,180.00,0.00,OPEN,0
672729.189,0,0,0,1.000,1.000,1.000,-90.00,180.00,0.00,OPEN,0
672729.239,0,0,0,1.000,1.000,1.000,-90.00,180.00,0.00,OPEN,0
672729.288,0,0,0,1.000,1.000,1.000,-90.00,180.00,0.00,OPEN,0
672729.338,0,0,0,1.000,1.000,1.000,-90.00,180.00,0.00,OPEN,0
672729.389,0,0,0,1.000,1.000,1.000,-90.00,180.00,0.00,OPEN,0
672729.439,0,0,0,1.000,1.000,1.000,-90.00,180.00,0.00,OPEN,0
672729.489,0,0,0,1.000,1.000,1.000,-90.00,180.00,0.00,OPEN,0
672729.539,0,0,0,1.000,1.000,1.000,-90.00,180.00,0.00,OPEN,0
672729.589,0,0,0,1.000,1.000,1.000,-90.00,180.00,0.00,OPEN,0
672729.639,0,0,0,1.000,1.000,1.000,-90.00,180.00,0.00,OPEN,0
672729.689,0,0,0,1.000,1.000,1.000,-90.00,180.00,0.00,OPEN,0
672729.738,0,0,0,0.999,1.000,1.000,-90.00,180.00,0.00,OPEN,0
672729.792,0,0,0,0.866,1.000,1.000,-90.00,180.00,0.00,OPEN,0
672729.839,0,0,0,0.663,1.000,1.000,-90.00,180.00,0.00,OPEN,0
672729.889,0,0,0,0.938,1.000,1.000,-90.00,180.00,0.00,OPEN,0
672729.939,0,0,0,0.994,1.000,1.000,-90.00,180.00,0.00,OPEN,0
672729.989,0,0,0,0.999,1.000,1.000,-90.00,180.00,0.00,OPEN,0
672730.039,0,0,0,1.000,1.000,1.000,-90.00,180.00,0.00,OPEN,0
672730.089,0,0,0,1.000,1.000,1.000,-90.00,180.00,0.00,OPEN,0
672730.139,0,0,0,1.000,1.000,1.000,-90.00,180.00,0.00,OPEN,0
672730.189,0,0,0,1.000,1.000,1.000,-90.00,180.00,0.00,OPEN,0
672730.238,2,0,0,1.000,1.000,1.000,-90.00,180.00,0.00,OPEN,0
672730.289,2,0,0,1.000,1.000,1.000,-90.00,180.00,0.00,OPEN,0
672730.339,2,0,0,1.000,1.000,1.000,-90.00,180.00,0.00,OPEN,0
672730.389,2,0,0,1.000,1.000,1.000,-90.00,180.00,0.00,OPEN,0
672730.439,2,0,0,1.000,1.000,1.000,-90.00,180.00,0.00,OPEN,0
672730.489,2,0,0,1.000,1.000,1.000,-90.00,180.00,0.00,OPEN,0
672730.539,2,0,0,1.000,1.000,1.000,-90.00,180.00,0.00,OPEN,0
672730.588,2,0,0,1.000,1.000,1.000,-90.00,180.00,0.00,OPEN,0
672730.638,2,0,0,1.000,1.000,1.000,-90.00,180.00,0.00,OPEN,0
672730.689,2,0,0,1.000,1.000,1.000,-90.00,180.00,0.00,OPEN,0
672730.739,2,0,0,1.000,1.000,1.000,-90.00,180.00,0.00,OPEN,0
672730.789,2,0,0,1.000,1.000,1.000,-90.00,180.00,0.00,OPEN,0
672730.839,2,0,0,1.000,1.000,1.000,-90.00,180.00,0.00,OPEN,0
672730.889,2,0,0,1.000,1.000,1.000,-90.00,180.00,0.00,OPEN,0
672730.938,2,0,0,1.000,1.000,1.000,-90.00,180.00,0.00,OPEN,0
672730.988,2,0,0,1.000,1.000,1.000,-90.00,180.00,0.00,OPEN,0
672731.039,2,0,0,1.000,1.000,1.000,-90.00,180.00,0.00,OPEN,0
672731.089,2,0,0,1.000,1.000,1.000,-90.00,180.00,0.00,OPEN,0
672731.140,2,0,0,1.000,1.000,1.000,-90.00,180.00,0.00,OPEN,0
672731.189,2,0,0,1.000,1.000,1.000,-90.00,180.00,0.00,OPEN,0
672731.239,2,0,0,1.000,1.000,1.000,-90.00,180.00,0.00,OPEN,0
672731.300,2,0,0,1.000,1.000,1.000,-90.00,180.00,0.00,OPEN,0
672731.339,2,0,0,1.000,1.000,1.000,-90.00,180.00,0.00,OPEN,0
672731.389,2,0,0,1.000,1.000,1.000,-90.00,180.00,0.00,OPEN,0
672731.439,2,0,0,1.000,1.000,1.000,-90.00,180.00,0.00,OPEN,0
672731.489,2,0,0,1.000,1.000,1.000,-90.00,180.00,0.00,OPEN,0
672731.538,2,0,0,1.000,1.000,1.000,-90.00,180.00,0.00,OPEN,0
672731.588,2,0,0,1.000,1.000,1.000,-90.00,180.00,0.00,OPEN,0
672731.639,2,0,0,1.000,1.000,1.000,-90.00,180.00,0.00,OPEN,0
672731.689,2,0,0,1.000,1.000,1.000,-90.00,180.00,0.00,OPEN,0
672731.739,2,0,0,1.000,1.000,1.000,-90.00,180.00,0.00,OPEN,0
672731.788,2,0,0,1.000,1.000,1.000,-90.00,180.00,0.00,OPEN,0
672731.839,2,0,0,1.000,1.000,1.000,-90.00,180.00,0.00,OPEN,0
672731.890,2,0,0,1.000,1.000,1.000,-90.00,180.00,0.00,OPEN,0
672731.940,2,0,0,1.000,1.000,1.000,-90.00,180.00,0.00,OPEN,0
672731.991,2,0,0,1.000,1.000,1.000,-90.00,180.00,0.00,OPEN,0
672732.038,2,0,0,1.000,1.000,1.000,-90.00,180.00,0.00,OPEN,0
672732.089,2,0,0,1.000,1.000,1.000,-90.00,180.00,0.00,OPEN,0
672732.140,2,0,0,1.000,1.000,1.000,-90.00,180.00,0.00,OPEN,0
672732.189,2,0,0,1.000,1.000,1.000,-90.00,180.00,0.00,OPEN,0
672732.240,2,0,0,1.000,1.000,1.000,-90.00,180.00,0.00,OPEN,0
672732.289,2,0,0,1.000,1.000,1.000,-90.00,180.00,0.00,OPEN,0
672732.339,2,0,0,1.000,1.000,1.000,-90.00,180.00,0.00,OPEN,0
672732.389,2,0,0,1.000,1.000,1.000,-90.00,180.00,0.00,OPEN,0
672732.439,2,0,0,1.000,1.000,1.000,-90.00,180.00,0.00,OPEN,0
672732.507,2,0,0,1.000,1.000,1.000,-90.00,180.00,0.00,OPEN,0
672732.541,2,0,0,1.000,1.000,1.000,-90.00,180.00,0.00,OPEN,0
672732.589,2,0,0,1.000,1.000,1.000,-90.00,180.00,0.00,OPEN,0
672732.639,2,0,0,1.000,1.000,1.000,-90.00,180.00,0.00,OPEN,0
672732.689,2,0,0,1.000,1.000,1.000,-90.00,180.00,0.00,OPEN,0
672732.740,2,0,0,1.000,1.000,1.000,-90.00,180.00,0.00,OPEN,0
672732.789,2,0,0,1.000,1.000,1.000,-90.00,180.00,0.00,OPEN,0
672732.839,2,0,0,1.000,1.000,1.000,-90.00,180.00,0.00,OPEN,0
672732.889,2,0,0,1.000,1.000,1.000,-90.00,180.00,0.00,OPEN,0
672732.940,2,0,0,1.000,1.000,1.000,-90.00,180.00,0.00,OPEN,0
672732.989,2,0,0,1.000,1.000,1.000,-90.00,180.00,0.00,OPEN,0
672733.039,2,0,0,1.000,1.000,1.000,-90.00,180.00,0.00,OPEN,0
672733.089,2,0,0,1.000,1.000,1.000,-90.00,180.00,0.00,OPEN,0
672733.139,2,0,0,1.000,1.000,1.000,-90.00,180.00,0.00,OPEN,0
672733.189,2,0,0,1.000,1.000,1.000,-90.00,180.00,0.00,OPEN,0
672733.239,2,0,0,1.000,1.000,1.000,-90.00,180.00,0.00,OPEN,0
672733.289,2,0,0,1.000,1.000,1.000,-90.00,180.00,0.00,OPEN,0
672733.339,2,0,0,1.000,1.000,1.000,-90.00,180.00,0.00,OPEN,0
672733.391,2,0,0,1.000,1.000,1.000,-90.00,180.00,0.00,OPEN,0
672733.439,2,0,0,1.000,1.000,1.000,-90.00,180.00,0.00,OPEN,0
672733.489,2,0,0,1.000,1.000,1.000,-90.00,180.00,0.00,OPEN,0
672733.539,2,0,0,1.000,1.000,1.000,-90.00,180.00,0.00,OPEN,0
672733.589,2,0,0,1.000,1.000,1.000,-90.00,180.00,0.00,OPEN,0
672733.639,2,0,0,1.000,1.000,1.000,-90.00,180.00,0.00,OPEN,0
672733.689,2,0,0,1.000,1.000,1.000,-90.00,180.00,0.00,OPEN,0
672733.739,2,0,0,1.000,1.000,1.000,-90.00,180.00,0.00,OPEN,0
672733.789,2,0,0,1.000,1.000,1.000,-90.00,180.00,0.00,OPEN,0
672733.839,2,0,0,1.000,1.000,1.000,-90.00,180.00,0.00,OPEN,0
672733.889,2,0,0,1.000,1.000,1.000,-90.00,180.00,0.00,OPEN,0
672733.939,2,0,0,1.000,1.000,1.000,-90.00,180.00,0.00,OPEN,0
672733.989,2,0,0,1.000,1.000,1.000,-90.00,180.00,0.00,OPEN,0
672734.039,2,0,0,1.000,1.000,1.000,-90.00,180.00,0.00,OPEN,0
672734.089,2,0,0,1.000,1.000,1.000,-90.00,180.00,0.00,OPEN,0
672734.147,2,0,0,1.000,1.000,1.000,-90.00,180.00,0.00,OPEN,0
672734.189,2,0,0,1.000,1.000,1.000,-90.00,180.00,0.00,OPEN,0
672734.239,2,0,0,1.000,1.000,1.000,-90.00,180.00,0.00,OPEN,0
672734.289,2,0,0,1.000,1.000,1.000,-90.00,180.00,0.00,OPEN,0
672734.340,2,0,0,1.000,1.000,1.000,-90.00,180.00,0.00,OPEN,0
672734.389,2,0,0,1.000,1.000,1.000,-90.00,180.00,0.00,OPEN,0
672734.439,2,0,0,1.000,1.000,1.000,-90.00,180.00,0.00,OPEN,0
672734.489,2,0,0,1.000,1.000,1.000,-90.00,180.00,0.00,OPEN,0
672734.539,2,0,0,1.000,1.000,1.000,-90.00,180.00,0.00,OPEN,0
672734.589,2,0,0,1.000,1.000,1.000,-90.00,180.00,0.00,OPEN,0
672734.639,2,0,0,1.000,1.000,1.000,-90.00,180.00,0.00,OPEN,0
672734.695,2,0,0,1.000,1.000,1.000,-90.00,180.00,0.00,OPEN,0
672734.740,2,0,0,1.000,1.000,1.000,-90.00,180.00,0.00,OPEN,0
672734.791,2,0,0,1.000,1.000,1.000,-90.00,180.00,0.00,OPEN,0
672734.840,2,0,0,1.000,1.000,1.000,-90.00,180.00,0.00,OPEN,0
672734.889,2,0,0,1.000,1.000,1.000,-90.00,180.00,0.00,OPEN,0
672734.939,2,0,0,1.000,1.000,1.000,-90.00,180.00,0.00,OPEN,0
672734.989,2,0,0,1.000,1.000,1.000,-90.00,180.00,0.00,OPEN,0
672735.038,2,0,0,1.000,1.000,1.000,-90.00,180.00,0.00,OPEN,0
672735.089,2,0,0,1.000,1.000,1.000,-90.00,180.00,0.00,OPEN,0
672735.139,2,0,0,1.000,1.000,1.000,-90.00,180.00,0.00,OPEN,0
672735.189,2,0,0,1.000,1.000,1.000,-90.00,180.00,0.00,OPEN,0
672735.239,2,0,0,1.000,1.000,1.000,-90.00,180.00,0.00,OPEN,0
672735.289,2,0,0,1.000,1.000,1.000,-90.00,180.00,0.00,OPEN,0
672735.339,2,0,0,1.000,1.000,1.000,-90.00,180.00,0.00,OPEN,0
672735.389,2,0,0,1.000,1.000,1.000,-90.00,180.00,0.00,OPEN,0
672735.439,2,0,0,1.000,1.000,1.000,-90.00,180.00,0.00,OPEN,0
672735.489,2,0,0,1.000,1.000,1.000,-90.00,180.00,0.00,OPEN,0
672735.539,2,0,0,1.000,1.000,1.000,-90.00,180.00,0.00,OPEN,0
672735.589,2,0,0,1.000,1.000,1.000,-90.00,180.00,0.00,OPEN,0
672735.639,2,0,0,1.000,1.000,1.000,-90.00,180.00,0.00,OPEN,0
672735.689,2,0,0,1.000,1.000,1.000,-90.00,180.00,0.00,OPEN,0
672735.739,2,0,0,1.000,1.000,1.000,-90.00,180.00,0.00,OPEN,0
672735.788,2,0,0,1.000,1.000,1.000,-90.00,180.00,0.00,OPEN,0
672735.839,2,0,0,1.000,1.000,1.000,-90.00,180.00,0.00,OPEN,0
672735.888,2,0,0,1.000,1.000,1.000,-90.00,180.00,0.00,OPEN,0
672735.939,2,0,0,1.000,1.000,1.000,-90.00,180.00,0.00,OPEN,0
672735.989,2,0,0,1.000,1.000,1.000,-90.00,180.00,0.00,OPEN,0
672736.039,2,0,0,0.999,1.000,1.000,-90.00,180.00,0.00,OPEN,0
672736.090,2,0,0,0.968,1.000,1.000,-90.00,180.00,0.00,OPEN,0
672736.139,2,0,0,0.730,1.000,1.000,-90.00,180.00,0.00,OPEN,0
672736.189,2,0,0,0.954,1.000,1.000,-90.00,180.00,0.00,OPEN,0
672736.239,2,0,0,0.989,1.000,1.000,-90.00,180.00,0.00,OPEN,0
672736.289,2,0,0,0.992,1.000,1.000,-90.00,180.00,0.00,OPEN,0
672736.339,2,0,0,0.988,1.000,1.000,-90.00,180.00,0.00,OPEN,0
672736.399,2,0,0,0.986,1.000,1.000,-90.00,180.00,0.00,OPEN,0
672736.440,2,0,0,0.980,1.000,1.000,-90.00,180.00,0.00,OPEN,0
672736.489,2,0,0,0.875,1.000,1.000,-90.00,180.00,0.00,OPEN,0
672736.539,3,0,0,0.922,1.000,1.000,-90.00,180.00,0.00,OPEN,0
672736.589,3,0,0,1.000,1.000,1.000,-90.00,180.00,0.00,OPEN,0
672736.639,3,0,0,1.000,1.000,1.000,-90.00,180.00,0.00,OPEN,0
672736.689,3,0,0,1.000,1.000,1.000,-90.00,180.00,0.00,OPEN,0
672736.738,3,0,0,1.000,1.000,1.000,-90.00,180.00,0.00,OPEN,0
672736.788,3,0,0,1.000,1.000,1.000,-90.00,180.00,0.00,OPEN,0
672736.839,3,0,0,1.000,1.000,1.000,-90.00,180.00,0.00,OPEN,0
672736.889,0,0,0,1.000,1.000,1.000,-90.00,180.00,0.00,OPEN,0
672736.939,0,0,0,1.000,1.000,1.000,-90.00,180.00,0.00,OPEN,0
672736.989,0,0,0,1.000,1.000,1.000,-90.00,180.00,0.00,OPEN,0
672737.038,0,0,0,1.000,1.000,1.000,-90.00,180.00,0.00,OPEN,0
672737.089,0,0,0,1.000,1.000,1.000,-90.00,180.00,0.00,OPEN,0
672737.139,0,0,0,1.000,1.000,1.000,-90.00,180.00,0.00,OPEN,0
672737.189,0,0,0,1.000,1.000,1.000,-90.00,180.00,0.00,OPEN,0
672737.239,0,0,0,1.000,1.000,1.000,-90.00,180.00,0.00,OPEN,0
672737.289,0,0,0,1.000,1.000,1.000,-90.00,180.00,0.00,OPEN,0
672737.339,0,0,0,1.000,1.000,1.000,-90.00,180.00,0.00,OPEN,0
672737.389,0,0,0,1.000,1.000,1.000,-90.00,180.00,0.00,OPEN,0
672737.439,0,0,0,1.000,1.000,1.000,-90.00,180.00,0.00,OPEN,0
672737.489,0,0,0,1.000,1.000,1.000,-90.00,180.00,0.00,OPEN,0
672737.538,0,0,0,1.000,1.000,1.000,-90.00,180.00,0.00,OPEN,0
672737.589,0,0,0,1.000,1.000,1.000,-90.00,180.00,0.00,OPEN,0
672737.640,0,0,0,1.000,1.000,1.000,-90.00,180.00,0.00,OPEN,0
672737.689,0,0,0,1.000,1.000,1.000,-90.00,180.00,0.00,OPEN,0
672737.738,0,0,0,1.000,1.000,1.000,-90.00,180.00,0.00,OPEN,0
672737.788,0,0,0,1.000,1.000,1.000,-90.00,180.00,0.00,OPEN,0
672737.839,0,0,0,1.000,1.000,1.000,-90.00,180.00,0.00,OPEN,0
672737.889,0,0,0,1.000,1.000,1.000,-90.00,180.00,0.00,OPEN,0
672737.939,0,0,0,1.000,1.000,1.000,-90.00,180.00,0.00,OPEN,0
672737.989,0,0,0,1.000,1.000,1.000,-90.00,180.00,0.00,OPEN,0
672738.039,0,0,0,1.000,1.000,1.000,-90.00,180.00,0.00,OPEN,0
672738.089,0,0,0,1.000,1.000,1.000,-90.00,180.00,0.00,OPEN,0
672738.139,0,0,0,1.000,1.000,1.000,-90.00,180.00,0.00,OPEN,0
672738.189,0,0,0,1.000,1.000,1.000,-90.00,180.00,0.00,OPEN,0
672738.239,0,0,0,1.000,1.000,1.000,-90.00,180.00,0.00,OPEN,0
672738.288,0,0,0,1.000,1.000,1.000,-90.00,180.00,0.00,OPEN,0
672738.338,0,0,0,1.000,1.000,1.000,-90.00,180.00,0.00,OPEN,0
672738.389,0,0,0,1.000,1.000,1.000,-90.00,180.00,0.00,OPEN,0
672738.439,0,0,0,1.000,1.000,1.000,-90.00,180.00,0.00,OPEN,0
672738.500,0,0,0,1.000,1.000,1.000,-90.00,180.00,0.00,OPEN,0
672738.540,0,0,0,1.000,1.000,1.000,-90.00,180.00,0.00,OPEN,0
672738.588,0,0,0,1.000,1.000,1.000,-90.00,180.00,0.00,OPEN,0
672738.639,0,0,0,1.000,1.000,1.000,-90.00,180.00,0.00,OPEN,0
672738.689,0,0,0,1.000,1.000,1.000,-90.00,180.00,0.00,OPEN,0
672738.739,0,0,0,1.000,1.000,1.000,-90.00,180.00,0.00,OPEN,0
672738.789,0,0,0,1.000,1.000,1.000,-90.00,180.00,0.00,OPEN,0
672738.839,0,0,0,1.000,1.000,1.000,-90.00,180.00,0.00,OPEN,0
672738.889,0,0,0,1.000,1.000,1.000,-90.00,180.00,0.00,OPEN,0
672738.939,0,0,0,1.000,1.000,1.000,-90.00,180.00,0.00,OPEN,0
672738.989,0,0,0,1.000,1.000,1.000,-90.00,180.00,0.00,OPEN,0
672739.039,0,0,0,1.000,1.000,1.000,-90.00,180.00,0.00,OPEN,0
672739.089,0,0,0,1.000,1.000,1.000,-90.00,180.00,0.00,OPEN,0
672739.139,0,0,0,1.000,1.000,1.000,-90.00,180.00,0.00,OPEN,0
672739.189,0,0,0,1.000,1.000,1.000,-90.00,180.00,0.00,OPEN,0
672739.239,0,0,0,1.000,1.000,1.000,-90.00,180.00,0.00,OPEN,0
672739.289,0,0,0,1.000,1.000,1.000,-90.00,180.00,0.00,OPEN,0
672739.339,0,0,0,1.000,1.000,1.000,-90.00,180.00,0.00,OPEN,0
672739.389,0,0,0,1.000,1.000,1.000,-90.00,180.00,0.00,OPEN,0
672739.439,0,0,0,1.000,1.000,1.000,-90.00,180.00,0.00,OPEN,0
672739.489,0,0,0,1.000,1.000,1.000,-90.00,180.00,0.00,OPEN,0
672739.539,0,0,0,1.000,1.000,1.000,-90.00,180.00,0.00,OPEN,0
672739.589,0,0,0,1.000,1.000,1.000,-90.00,180.00,0.00,OPEN,0
672739.639,0,0,0,1.000,1.000,1.000,-90.00,180.00,0.00,OPEN,0
672739.689,0,0,0,1.000,1.000,1.000,-90.00,180.00,0.00,OPEN,0
672739.739,0,0,0,1.000,1.000,1.000,-90.00,180.00,0.00,OPEN,0
672739.789,0,0,0,1.000,1.000,1.000,-90.00,180.00,0.00,OPEN,0
672739.838,0,0,0,1.000,1.000,1.000,-90.00,180.00,0.00,OPEN,0
672739.889,0,0,0,1.000,1.000,1.000,-90.00,180.00,0.00,OPEN,0
672739.939,0,0,0,1.000,1.000,1.000,-90.00,180.00,0.00,OPEN,0
672739.989,0,0,0,1.000,1.000,1.000,-90.00,180.00,0.00,OPEN,0
672740.039,0,0,0,1.000,1.000,1.000,-90.00,180.00,0.00,OPEN,0
672740.089,0,0,0,1.000,1.000,1.000,-90.00,180.00,0.00,OPEN,0
672740.139,0,0,0,1.000,1.000,1.000,-90.00,180.00,0.00,OPEN,0
672740.189,0,0,0,1.000,1.000,1.000,-90.00,180.00,0.00,OPEN,0
672740.239,0,0,0,1.000,1.000,1.000,-90.00,180.00,0.00,OPEN,0
672740.289,0,0,0,1.000,1.000,1.000,-90.00,180.00,0.00,OPEN,0
672740.339,0,0,0,1.000,1.000,1.000,-90.00,180.00,0.00,OPEN,0
672740.389,0,0,0,1.000,1.000,1.000,-90.00,180.00,0.00,OPEN,0
672740.439,0,0,0,1.000,1.000,1.000,-90.00,180.00,0.00,OPEN,0
672740.489,0,0,0,1.000,1.000,1.000,-90.00,180.00,0.00,OPEN,0
672740.539,0,0,0,1.000,1.000,1.000,-90.00,180.00,0.00,OPEN,0
672740.589,0,0,0,1.000,1.000,1.000,-90.00,180.00,0.00,OPEN,0
672740.639,0,0,0,1.000,1.000,1.000,-90.00,180.00,0.00,OPEN,0
672740.689,0,0,0,1.000,1.000,1.000,-90.00,180.00,0.00,OPEN,0
672740.739,0,0,0,1.000,1.000,1.000,-90.00,180.00,0.00,OPEN,0
672740.803,0,0,0,1.000,1.000,1.000,-90.00,180.00,0.00,OPEN,0
672740.840,0,0,0,1.000,1.000,1.000,-90.00,180.00,0.00,OPEN,0
672740.889,0,0,0,1.000,1.000,1.000,-90.00,180.00,0.00,OPEN,0
672740.939,0,0,0,1.000,1.000,1.000,-90.00,180.00,0.00,OPEN,0
672740.989,0,0,0,1.000,1.000,1.000,-90.00,180.00,0.00,OPEN,0
672741.038,0,0,0,1.000,1.000,1.000,-90.00,180.00,0.00,OPEN,0
672741.088,0,0,0,1.000,1.000,1.000,-90.00,180.00,0.00,OPEN,0
672741.139,0,0,0,1.000,1.000,1.000,-90.00,180.00,0.00,OPEN,0
672741.188,0,0,0,1.000,1.000,1.000,-90.00,180.00,0.00,OPEN,0
672741.239,0,0,0,1.000,1.000,1.000,-90.00,180.00,0.00,OPEN,0
672741.289,0,0,0,1.000,1.000,1.000,-90.00,180.00,0.00,OPEN,0
672741.339,0,0,0,1.000,1.000,1.000,-90.00,180.00,0.00,OPEN,0
672741.389,0,0,0,1.000,1.000,1.000,-90.00,180.00,0.00,OPEN,0
672741.439,0,0,0,1.000,1.000,1.000,-90.00,180.00,0.00,OPEN,0
672741.489,0,0,0,1.000,1.000,1.000,-90.00,180.00,0.00,OPEN,0
672741.539,0,0,0,1.000,1.000,1.000,-90.00,180.00,0.00,OPEN,0
672741.589,0,0,0,1.000,1.000,1.000,-90.00,180.00,0.00,OPEN,0
672741.639,0,0,0,1.000,1.000,1.000,-90.00,180.00,0.00,OPEN,0
672741.689,0,0,0,1.000,1.000,1.000,-90.00,180.00,0.00,OPEN,0
672741.738,0,0,0,1.000,1.000,1.000,-90.00,180.00,0.00,OPEN,0
672741.789,0,0,0,1.000,1.000,1.000,-90.00,180.00,0.00,OPEN,0
672741.838,0,0,0,1.000,1.000,1.000,-90.00,180.00,0.00,OPEN,0
672741.888,0,0,0,1.000,1.000,1.000,-90.00,180.00,0.00,OPEN,0
672741.939,0,0,0,1.000,1.000,1.000,-90.00,180.00,0.00,OPEN,0
672741.989,0,0,0,1.000,1.000,1.000,-90.00,180.00,0.00,OPEN,0
672742.041,0,0,0,1.000,1.000,1.000,-90.00,180.00,0.00,OPEN,0
672742.089,0,0,0,1.000,1.000,1.000,-90.00,180.00,0.00,OPEN,0
672742.138,0,0,0,1.000,1.000,1.000,-90.00,180.00,0.00,OPEN,0
672742.189,0,0,0,1.000,1.000,1.000,-90.00,180.00,0.00,OPEN,0
672742.240,0,0,0,1.000,1.000,1.000,-90.00,180.00,0.00,OPEN,0
672742.293,0,0,0,1.000,1.000,1.000,-90.00,180.00,0.00,OPEN,0
672742.340,0,0,0,1.000,1.000,1.000,-90.00,180.00,0.00,OPEN,0
672742.391,0,0,0,1.000,1.000,1.000,-90.00,180.00,0.00,OPEN,0
672742.440,0,0,0,1.000,1.000,1.000,-90.00,180.00,0.00,OPEN,0
672742.489,0,0,0,1.000,1.000,1.000,-90.00,180.00,0.00,OPEN,0
672742.539,0,0,0,1.000,1.000,1.000,-90.00,180.00,0.00,OPEN,0
672742.590,0,0,0,1.000,1.000,1.000,-90.00,180.00,0.00,OPEN,0
672742.639,0,0,0,1.000,1.000,1.000,-90.00,180.00,0.00,OPEN,0
672742.690,0,0,0,1.000,1.000,1.000,-90.00,180.00,0.00,OPEN,0
672742.742,0,0,0,1.000,1.000,1.000,-90.00,180.00,0.00,OPEN,0
672742.790,0,0,0,1.000,1.000,1.000,-90.00,180.00,0.00,OPEN,0
672742.840,0,0,0,1.000,1.000,1.000,-90.00,180.00,0.00,OPEN,0
672742.892,0,0,0,1.000,1.000,1.000,-90.00,180.00,0.00,OPEN,0
672742.940,0,0,0,1.000,1.000,1.000,-90.00,180.00,0.00,OPEN,0
672742.989,0,0,0,1.000,1.000,1.000,-90.00,180.00,0.00,OPEN,0
672743.040,0,0,0,1.000,1.000,1.000,-90.00,180.00,0.00,OPEN,0
672743.092,0,0,0,1.000,1.000,1.000,-90.00,180.00,0.00,OPEN,0
672743.139,0,0,0,1.000,1.000,1.000,-90.00,180.00,0.00,OPEN,0
672743.189,0,0,0,1.000,1.000,1.000,-90.00,180.00,0.00,OPEN,0
672743.239,0,0,0,1.000,1.000,1.000,-90.00,180.00,0.00,OPEN,0
672743.289,0,0,0,1.000,1.000,1.000,-90.00,180.00,0.00,OPEN,0
672743.339,0,0,0,1.000,1.000,1.000,-90.00,180.00,0.00,OPEN,0
672743.390,0,0,0,1.000,1.000,1.000,-90.00,180.00,0.00,OPEN,0
672743.439,0,0,0,0.768,1.000,1.000,-90.00,180.00,0.00,OPEN,0
672743.489,0,0,0,0.955,1.000,1.000,-90.00,180.00,0.00,OPEN,0
672743.539,0,0,0,0.990,1.000,1.000,-90.00,180.00,0.00,OPEN,0
672743.601,0,0,0,0.998,1.000,1.000,-90.00,180.00,0.00,OPEN,0
672743.640,0,0,0,0.999,1.000,1.000,-90.00,180.00,0.00,OPEN,0
672743.689,0,0,0,1.000,1.000,1.000,-90.00,180.00,0.00,OPEN,0
672743.739,0,0,0,1.000,1.000,1.000,-90.00,180.00,0.00,OPEN,0
672743.789,0,0,0,1.000,1.000,1.000,-90.00,180.00,0.00,OPEN,0
672743.840,3,0,0,1.000,1.000,1.000,-90.00,180.00,0.00,OPEN,0
672743.889,3,0,0,1.000,1.000,1.000,-90.00,180.00,0.00,OPEN,0
672743.939,3,0,0,1.000,1.000,1.000,-90.00,180.00,0.00,OPEN,0
672743.989,3,0,0,1.000,1.000,1.000,-90.00,180.00,0.00,OPEN,0
672744.039,3,0,0,1.000,1.000,1.000,-90.00,180.00,0.00,OPEN,0
672744.089,3,0,0,1.000,1.000,1.000,-90.00,180.00,0.00,OPEN,0
672744.139,3,0,0,1.000,1.000,1.000,-90.00,180.00,0.00,OPEN,0
672744.189,3,0,0,1.000,1.000,1.000,-90.00,180.00,0.00,OPEN,0
672744.239,3,0,0,1.000,1.000,1.000,-90.00,180.00,0.00,OPEN,0
672744.289,3,0,0,1.000,1.000,1.000,-90.00,180.00,0.00,OPEN,0
672744.339,3,0,0,1.000,1.000,1.000,-90.00,180.00,0.00,OPEN,0
672744.389,3,0,0,1.000,1.000,1.000,-90.00,180.00,0.00,OPEN,0
672744.439,3,0,0,1.000,1.000,1.000,-90.00,180.00,0.00,OPEN,0
672744.489,3,0,0,1.000,1.000,1.000,-90.00,180.00,0.00,OPEN,0
672744.539,3,0,0,1.000,1.000,1.000,-90.00,180.00,0.00,OPEN,0
672744.589,3,0,0,1.000,1.000,1.000,-90.00,180.00,0.00,OPEN,0
672744.639,3,0,0,1.000,1.000,1.000,-90.00,180.00,0.00,OPEN,0
672744.690,3,0,0,1.000,1.000,1.000,-90.00,180.00,0.00,OPEN,0
672744.739,3,0,0,1.000,1.000,1.000,-90.00,180.00,0.00,OPEN,0
672744.789,3,0,0,1.000,1.000,1.000,-90.00,180.00,0.00,OPEN,0
672744.839,3,0,0,1.000,1.000,1.000,-90.00,180.00,0.00,OPEN,0
672744.889,3,0,0,1.000,1.000,1.000,-90.00,180.00,0.00,OPEN,0
672744.939,3,0,0,1.000,1.000,1.000,-90.00,180.00,0.00,OPEN,0
672744.989,3,0,0,1.000,1.000,1.000,-90.00,180.00,0.00,OPEN,0
672745.039,3,0,0,1.000,1.000,1.000,-90.00,180.00,0.00,OPEN,0
672745.089,3,0,0,1.000,1.000,1.000,-90.00,180.00,0.00,OPEN,0
672745.139,3,0,0,1.000,1.000,1.000,-90.00,180.00,0.00,OPEN,0
672745.198,3,0,0,1.000,1.000,1.000,-90.00,180.00,0.00,OPEN,0
672745.240,3,0,0,1.000,1.000,1.000,-90.00,180.00,0.00,OPEN,0
672745.289,3,0,0,1.000,1.000,1.000,-90.00,180.00,0.00,OPEN,0
672745.339,3,0,0,1.000,1.000,1.000,-90.00,180.00,0.00,OPEN,0
672745.389,3,0,0,1.000,1.000,1.000,-90.00,180.00,0.00,OPEN,0
672745.439,3,0,0,1.000,1.000,1.000,-90.00,180.00,0.00,OPEN,0
672745.489,3,0,0,1.000,1.000,1.000,-90.00,180.00,0.00,OPEN,0
672745.538,3,0,0,1.000,1.000,1.000,-90.00,180.00,0.00,OPEN,0
672745.589,3,0,0,1.000,1.000,1.000,-90.00,180.00,0.00,OPEN,0
672745.639,3,0,0,1.000,1.000,1.000,-90.00,180.00,0.00,OPEN,0
672745.689,3,0,0,1.000,1.000,1.000,-90.00,180.00,0.00,OPEN,0
672745.739,3,0,0,1.000,1.000,1.000,-90.00,180.00,0.00,OPEN,0
672745.788,3,0,0,1.000,1.000,1.000,-90.00,180.00,0.00,OPEN,0
672745.839,3,0,0,1.000,1.000,1.000,-90.00,180.00,0.00,OPEN,0
672745.889,3,0,0,1.000,1.000,1.000,-90.00,180.00,0.00,OPEN,0
672745.939,3,0,0,1.000,1.000,1.000,-90.00,180.00,0.00,OPEN,0
672745.989,3,0,0,1.000,1.000,1.000,-90.00,180.00,0.00,OPEN,0
672746.042,3,0,0,1.000,1.000,1.000,-90.00,180.00,0.00,OPEN,0
672746.090,3,0,0,1.000,1.000,1.000,-90.00,180.00,0.00,OPEN,0
672746.141,3,0,0,1.000,1.000,1.000,-90.00,180.00,0.00,OPEN,0
672746.189,3,0,0,1.000,1.000,1.000,-90.00,180.00,0.00,OPEN,0
672746.239,3,0,0,1.000,1.000,1.000,-90.00,180.00,0.00,OPEN,0
672746.292,3,0,0,1.000,1.000,1.000,-90.00,180.00,0.00,OPEN,0
672746.340,3,0,0,1.000,1.000,1.000,-90.00,180.00,0.00,OPEN,0
672746.389,3,0,0,1.000,1.000,1.000,-90.00,180.00,0.00,OPEN,0
672746.439,3,0,0,1.000,1.000,1.000,-90.00,180.00,0.00,OPEN,0
672746.489,3,0,0,1.000,1.000,1.000,-90.00,180.00,0.00,OPEN,0
672746.540,3,0,0,1.000,1.000,1.000,-90.00,180.00,0.00,OPEN,0
672746.589,3,0,0,1.000,1.000,1.000,-90.00,180.00,0.00,OPEN,0
672746.638,3,0,0,1.000,1.000,1.000,-90.00,180.00,0.00,OPEN,0
672746.689,3,0,0,1.000,1.000,1.000,-90.00,180.00,0.00,OPEN,0
672746.739,3,0,0,1.000,1.000,1.000,-90.00,180.00,0.00,OPEN,0
672746.789,3,0,0,1.000,1.000,1.000,-90.00,180.00,0.00,OPEN,0
672746.839,3,0,0,1.000,1.000,1.000,-90.00,180.00,0.00,OPEN,0
672746.888,3,0,0,1.000,1.000,1.000,-90.00,180.00,0.00,OPEN,0
672746.939,3,0,0,1.000,1.000,1.000,-90.00,180.00,0.00,OPEN,0
672747.001,3,0,0,1.000,1.000,1.000,-90.00,180.00,0.00,OPEN,0
672747.041,3,0,0,1.000,1.000,1.000,-90.00,180.00,0.00,OPEN,0
672747.090,3,0,0,1.000,1.000,1.000,-90.00,180.00,0.00,OPEN,0
672747.139,3,0,0,1.000,1.000,1.000,-90.00,180.00,0.00,OPEN,0
672747.189,3,0,0,1.000,1.000,1.000,-90.00,180.00,0.00,OPEN,0
672747.239,3,0,0,1.000,1.000,1.000,-90.00,180.00,0.00,OPEN,0
672747.291,3,0,0,1.000,1.000,1.000,-90.00,180.00,0.00,OPEN,0
672747.339,3,0,0,1.000,1.000,1.000,-90.00,180.00,0.00,OPEN,0
672747.389,3,0,0,1.000,1.000,1.000,-90.00,180.00,0.00,OPEN,0
672747.439,3,0,0,1.000,1.000,1.000,-90.00,180.00,0.00,OPEN,0
672747.490,3,0,0,1.000,1.000,1.000,-90.00,180.00,0.00,OPEN,0
672747.540,3,0,0,1.000,1.000,1.000,-90.00,180.00,0.00,OPEN,0
672747.589,3,0,0,1.000,1.000,1.000,-90.00,180.00,0.00,OPEN,0
672747.639,3,0,0,1.000,1.000,1.000,-90.00,180.00,0.00,OPEN,0
672747.689,3,0,0,1.000,1.000,1.000,-90.00,180.00,0.00,OPEN,0
672747.739,3,0,0,1.000,1.000,1.000,-90.00,180.00,0.00,OPEN,0
672747.789,3,0,0,1.000,1.000,1.000,-90.00,180.00,0.00,OPEN,0
672747.839,3,0,0,1.000,1.000,1.000,-90.00,180.00,0.00,OPEN,0
672747.889,3,0,0,1.000,1.000,1.000,-90.00,180.00,0.00,OPEN,0
672747.939,3,0,0,1.000,1.000,1.000,-90.00,180.00,0.00,OPEN,0
672748.016,3,0,0,1.000,1.000,1.000,-90.00,180.00,0.00,OPEN,0
672748.042,3,0,0,1.000,1.000,1.000,-90.00,180.00,0.00,OPEN,0
672748.089,3,0,0,1.000,1.000,1.000,-90.00,180.00,0.00,OPEN,0
672748.139,3,0,0,1.000,1.000,1.000,-90.00,180.00,0.00,OPEN,0
672748.189,3,0,0,1.000,1.000,1.000,-90.00,180.00,0.00,OPEN,0
672748.238,3,0,0,1.000,1.000,1.000,-90.00,180.00,0.00,OPEN,0
672748.289,3,0,0,1.000,1.000,1.000,-90.00,180.00,0.00,OPEN,0
672748.339,3,0,0,1.000,1.000,1.000,-90.00,180.00,0.00,OPEN,0
672748.389,3,0,0,1.000,1.000,1.000,-90.00,180.00,0.00,OPEN,0
672748.439,3,0,0,1.000,1.000,1.000,-90.00,180.00,0.00,OPEN,0
672748.489,3,0,0,1.000,1.000,1.000,-90.00,180.00,0.00,OPEN,0
672748.539,3,0,0,1.000,1.000,1.000,-90.00,180.00,0.00,OPEN,0
672748.589,3,0,0,1.000,1.000,1.000,-90.00,180.00,0.00,OPEN,0
672748.639,3,0,0,1.000,1.000,1.000,-90.00,180.00,0.00,OPEN,0
672748.688,3,0,0,1.000,1.000,1.000,-90.00,180.00,0.00,OPEN,0
672748.738,3,0,0,1.000,1.000,1.000,-90.00,180.00,0.00,OPEN,0
672748.789,3,0,0,1.000,1.000,1.000,-90.00,180.00,0.00,OPEN,0
672748.838,3,0,0,1.000,1.000,1.000,-90.00,180.00,0.00,OPEN,0
672748.888,3,0,0,1.000,1.000,1.000,-90.00,180.00,0.00,OPEN,0
672748.938,3,0,0,1.000,1.000,1.000,-90.00,180.00,0.00,OPEN,0
672748.989,3,0,0,1.000,1.000,1.000,-90.00,180.00,0.00,OPEN,0
672749.039,3,0,0,1.000,1.000,1.000,-90.00,180.00,0.00,OPEN,0
672749.089,3,0,0,1.000,1.000,1.000,-90.00,180.00,0.00,OPEN,0
672749.139,3,0,0,1.000,1.000,1.000,-90.00,180.00,0.00,OPEN,0
672749.189,3,0,0,1.000,1.000,1.000,-90.00,180.00,0.00,OPEN,0
672749.239,3,0,0,1.000,1.000,1.000,-90.00,180.00,0.00,OPEN,0
672749.289,3,0,0,1.000,1.000,1.000,-90.00,180.00,0.00,OPEN,0
672749.339,3,0,0,1.000,1.000,1.000,-90.00,180.00,0.00,OPEN,0
672749.389,3,0,0,1.000,1.000,1.000,-90.00,180.00,0.00,OPEN,0
672749.439,3,0,0,1.000,1.000,1.000,-90.00,180.00,0.00,OPEN,0
672749.489,3,0,0,1.000,1.000,1.000,-90.00,180.00,0.00,OPEN,0
672749.539,3,0,0,1.000,1.000,1.000,-90.00,180.00,0.00,OPEN,0
672749.588,3,0,0,1.000,1.000,1.000,-90.00,180.00,0.00,OPEN,0
672749.638,3,0,0,1.000,1.000,1.000,-90.00,180.00,0.00,OPEN,0
672749.689,3,0,0,0.998,1.000,1.000,-90.00,180.00,0.00,OPEN,0
672749.739,3,0,0,0.973,1.000,1.000,-90.00,180.00,0.00,OPEN,0
672749.789,3,0,0,0.588,1.000,1.000,-90.00,180.00,0.00,OPEN,0
672749.839,3,0,0,1.000,1.000,1.000,-90.00,180.00,0.00,OPEN,0
672749.888,3,0,0,1.000,1.000,1.000,-90.00,180.00,0.00,OPEN,0
672749.939,3,0,0,1.000,1.000,1.000,-90.00,180.00,0.00,OPEN,0
672749.989,3,0,0,1.000,1.000,1.000,-90.00,180.00,0.00,OPEN,0
672750.039,3,0,0,1.000,1.000,1.000,-90.00,180.00,0.00,OPEN,0
672750.089,3,0,0,1.000,1.000,1.000,-90.00,180.00,0.00,OPEN,0
672750.139,3,0,0,1.000,1.000,1.000,-90.00,180.00,0.00,OPEN,0
672750.189,0,0,0,1.000,1.000,1.000,-90.00,180.00,0.00,OPEN,0
672750.239,0,0,0,1.000,1.000,1.000,-90.00,180.00,0.00,OPEN,0
672750.289,0,0,0,1.000,1.000,1.000,-90.00,180.00,0.00,OPEN,0
672750.339,0,0,0,1.000,1.000,1.000,-90.00,180.00,0.00,OPEN,0
672750.388,0,0,0,1.000,1.000,1.000,-90.00,180.00,0.00,OPEN,0
672750.439,0,0,0,1.000,1.000,1.000,-90.00,180.00,0.00,OPEN,0
672750.489,0,0,0,1.000,1.000,1.000,-90.00,180.00,0.00,OPEN,0
672750.539,0,0,0,1.000,1.000,1.000,-90.00,180.00,0.00,OPEN,0
672750.589,0,0,0,1.000,1.000,1.000,-90.00,180.00,0.00,OPEN,0
672750.638,0,0,0,1.000,1.000,1.000,-90.00,180.00,0.00,OPEN,0
672750.689,0,0,0,1.000,1.000,1.000,-90.00,180.00,0.00,OPEN,0
672750.739,0,0,0,1.000,1.000,1.000,-90.00,180.00,0.00,OPEN,0
672750.789,0,0,0,1.000,1.000,1.000,-90.00,180.00,0.00,OPEN,0
672750.839,0,0,0,1.000,1.000,1.000,-90.00,180.00,0.00,OPEN,0
672750.889,0,0,0,1.000,1.000,1.000,-90.00,180.00,0.00,OPEN,0
672750.939,0,0,0,1.000,1.000,1.000,-90.00,180.00,0.00,OPEN,0
672750.989,0,0,0,1.000,1.000,1.000,-90.00,180.00,0.00,OPEN,0
672751.039,0,0,0,1.000,1.000,1.000,-90.00,180.00,0.00,OPEN,0
672751.089,0,0,0,1.000,1.000,1.000,-90.00,180.00,0.00,OPEN,0
672751.139,0,0,0,1.000,1.000,1.000,-90.00,180.00,0.00,OPEN,0
672751.188,0,0,0,1.000,1.000,1.000,-90.00,180.00,0.00,OPEN,0
672751.238,0,0,0,1.000,1.000,1.000,-90.00,180.00,0.00,OPEN,0
672751.289,0,0,0,1.000,1.000,1.000,-90.00,180.00,0.00,OPEN,0
672751.338,0,0,0,1.000,1.000,1.000,-90.00,180.00,0.00,OPEN,0
672751.391,0,0,0,1.000,1.000,1.000,-90.00,180.00,0.00,OPEN,0
672751.439,0,0,0,1.000,1.000,1.000,-90.00,180.00,0.00,OPEN,0
672751.504,0,0,0,1.000,1.000,1.000,-90.00,180.00,0.00,OPEN,0
672751.544,0,0,0,1.000,1.000,1.000,-90.00,180.00,0.00,OPEN,0
672751.589,0,0,0,1.000,1.000,1.000,-90.00,180.00,0.00,OPEN,0
672751.639,0,0,0,1.000,1.000,1.000,-90.00,180.00,0.00,OPEN,0
672751.689,0,0,0,1.000,1.000,1.000,-90.00,180.00,0.00,OPEN,0
672751.739,0,0,0,1.000,1.000,1.000,-90.00,180.00,0.00,OPEN,0
672751.789,0,0,0,1.000,1.000,1.000,-90.00,180.00,0.00,OPEN,0
672751.839,0,0,0,1.000,1.000,1.000,-90.00,180.00,0.00,OPEN,0
672751.889,0,0,0,1.000,1.000,1.000,-90.00,180.00,0.00,OPEN,0
672751.939,0,0,0,1.000,1.000,1.000,-90.00,180.00,0.00,OPEN,0
672751.989,0,0,0,1.000,1.000,1.000,-90.00,180.00,0.00,OPEN,0
672752.039,0,0,0,1.000,1.000,1.000,-90.00,180.00,0.00,OPEN,0
672752.088,0,0,0,1.000,1.000,1.000,-90.00,180.00,0.00,OPEN,0
672752.139,0,0,0,1.000,1.000,1.000,-90.00,180.00,0.00,OPEN,0
672752.189,0,0,0,1.000,1.000,1.000,-90.00,180.00,0.00,OPEN,0
672752.239,0,0,0,1.000,1.000,1.000,-90.00,180.00,0.00,OPEN,0
672752.290,0,0,0,1.000,1.000,1.000,-90.00,180.00,0.00,OPEN,0
672752.339,0,0,0,1.000,1.000,1.000,-90.00,180.00,0.00,OPEN,0
672752.390,0,0,0,1.000,1.000,1.000,-90.00,180.00,0.00,OPEN,0
672752.439,0,0,0,1.000,1.000,1.000,-90.00,180.00,0.00,OPEN,0
672752.489,0,0,0,1.000,1.000,1.000,-90.00,180.00,0.00,OPEN,0
672752.539,0,0,0,1.000,1.000,1.000,-90.00,180.00,0.00,OPEN,0
672752.589,0,0,0,1.000,1.000,1.000,-90.00,180.00,0.00,OPEN,0
672752.639,0,0,0,1.000,1.000,1.000,-90.00,180.00,0.00,OPEN,0
672752.689,0,0,0,1.000,1.000,1.000,-90.00,180.00,0.00,OPEN,0
672752.738,0,0,0,1.000,1.000,1.000,-90.00,180.00,0.00,OPEN,0
672752.789,0,0,0,1.000,1.000,1.000,-90.00,180.00,0.00,OPEN,0
672752.839,0,0,0,1.000,1.000,1.000,-90.00,180.00,0.00,OPEN,0
672752.889,0,0,0,1.000,1.000,1.000,-90.00,180.00,0.00,OPEN,0
672752.939,0,0,0,1.000,1.000,1.000,-90.00,180.00,0.00,OPEN,0
672752.989,0,0,0,1.000,1.000,1.000,-90.00,180.00,0.00,OPEN,0
672753.039,0,0,0,1.000,1.000,1.000,-90.00,180.00,0.00,OPEN,0
672753.089,0,0,0,1.000,1.000,1.000,-90.00,180.00,0.00,OPEN,0
672753.140,0,0,0,1.000,1.000,1.000,-90.00,180.00,0.00,OPEN,0
672753.189,0,0,0,1.000,1.000,1.000,-90.00,180.00,0.00,OPEN,0
672753.239,0,0,0,1.000,1.000,1.000,-90.00,180.00,0.00,OPEN,0
672753.289,0,0,0,1.000,1.000,1.000,-90.00,180.00,0.00,OPEN,0
672753.339,0,0,0,1.000,1.000,1.000,-90.00,180.00,0.00,OPEN,0
672753.389,0,0,0,1.000,1.000,1.000,-90.00,180.00,0.00,OPEN,0
672753.439,0,0,0,1.000,1.000,1.000,-90.00,180.00,0.00,OPEN,0
672753.489,0,0,0,1.000,1.000,1.000,-90.00,180.00,0.00,OPEN,0
672753.539,0,0,0,1.000,1.000,1.000,-90.00,180.00,0.00,OPEN,0
672753.589,0,0,0,1.000,1.000,1.000,-90.00,180.00,0.00,OPEN,0
672753.638,0,0,0,1.000,1.000,1.000,-90.00,180.00,0.00,OPEN,0
672753.689,0,0,0,1.000,1.000,1.000,-90.00,180.00,0.00,OPEN,0
672753.739,0,0,0,1.000,1.000,1.000,-90.00,180.00,0.00,OPEN,0
672753.789,0,0,0,1.000,1.000,1.000,-90.00,180.00,0.00,OPEN,0
672753.839,0,0,0,1.000,1.000,1.000,-90.00,180.00,0.00,OPEN,0
672753.889,0,0,0,1.000,1.000,1.000,-90.00,180.00,0.00,OPEN,0
672753.938,0,0,0,1.000,1.000,1.000,-90.00,180.00,0.00,OPEN,0
672754.002,0,0,0,1.000,1.000,1.000,-90.00,180.00,0.00,OPEN,0
672754.041,0,0,0,1.000,1.000,1.000,-90.00,180.00,0.00,OPEN,0
672754.089,0,0,0,1.000,1.000,1.000,-90.00,180.00,0.00,OPEN,0
672754.139,0,0,0,1.000,1.000,1.000,-90.00,180.00,0.00,OPEN,0
672754.189,0,0,0,1.000,1.000,1.000,-90.00,180.00,0.00,OPEN,0
672754.239,0,0,0,1.000,1.000,1.000,-90.00,180.00,0.00,OPEN,0
672754.289,0,0,0,1.000,1.000,1.000,-90.00,180.00,0.00,OPEN,0
672754.339,0,0,0,1.000,1.000,1.000,-90.00,180.00,0.00,OPEN,0
672754.388,0,0,0,1.000,1.000,1.000,-90.00,180.00,0.00,OPEN,0
672754.439,0,0,0,1.000,1.000,1.000,-90.00,180.00,0.00,OPEN,0
672754.489,0,0,0,1.000,1.000,1.000,-90.00,180.00,0.00,OPEN,0
672754.539,0,0,0,1.000,1.000,1.000,-90.00,180.00,0.00,OPEN,0
672754.589,0,0,0,1.000,1.000,1.000,-90.00,180.00,0.00,OPEN,0
672754.639,0,0,0,1.000,1.000,1.000,-90.00,180.00,0.00,OPEN,0
672754.690,0,0,0,1.000,1.000,1.000,-90.00,180.00,0.00,OPEN,0
672754.739,0,0,0,1.000,1.000,1.000,-90.00,180.00,0.00,OPEN,0
672754.789,0,0,0,1.000,1.000,1.000,-90.00,180.00,0.00,OPEN,0
672754.838,0,0,0,1.000,1.000,1.000,-90.00,180.00,0.00,OPEN,0
672754.889,0,0,0,1.000,1.000,1.000,-90.00,180.00,0.00,OPEN,0
672754.939,0,0,0,1.000,1.000,1.000,-90.00,180.00,0.00,OPEN,0
672754.989,0,0,0,1.000,1.000,1.000,-90.00,180.00,0.00,OPEN,0
672755.039,0,0,0,1.000,1.000,1.000,-90.00,180.00,0.00,OPEN,0
672755.089,0,0,0,1.000,1.000,1.000,-90.00,180.00,0.00,OPEN,0
672755.139,0,0,0,1.000,1.000,1.000,-90.00,180.00,0.00,OPEN,0
672755.189,0,0,0,1.000,1.000,1.000,-90.00,180.00,0.00,OPEN,0
672755.239,0,0,0,1.000,1.000,1.000,-90.00,180.00,0.00,OPEN,0
672755.288,0,0,0,1.000,1.000,1.000,-90.00,180.00,0.00,OPEN,0
672755.338,0,0,0,1.000,1.000,1.000,-90.00,180.00,0.00,OPEN,0
672755.389,0,0,0,1.000,1.000,1.000,-90.00,180.00,0.00,OPEN,0
672755.439,0,0,0,1.000,1.000,1.000,-90.00,180.00,0.00,OPEN,0
672755.488,0,0,0,1.000,1.000,1.000,-90.00,180.00,0.00,OPEN,0
672755.539,0,0,0,1.000,1.000,1.000,-90.00,180.00,0.00,OPEN,0
672755.589,0,0,0,1.000,1.000,1.000,-90.00,180.00,0.00,OPEN,0
672755.639,0,0,0,1.000,1.000,1.000,-90.00,180.00,0.00,OPEN,0
672755.689,0,0,0,1.000,1.000,1.000,-90.00,180.00,0.00,OPEN,0
672755.739,0,0,0,1.000,1.000,1.000,-90.00,180.00,0.00,OPEN,0
672755.789,0,0,0,1.000,1.000,1.000,-90.00,180.00,0.00,OPEN,0
672755.839,0,0,0,1.000,1.000,1.000,-90.00,180.00,0.00,OPEN,0
672755.908,0,0,0,1.000,1.000,1.000,-90.00,180.00,0.00,OPEN,0
672755.941,0,0,0,1.000,1.000,1.000,-90.00,180.00,0.00,OPEN,0
672755.989,0,0,0,1.000,1.000,1.000,-90.00,180.00,0.00,OPEN,0
672756.039,0,0,0,1.000,1.000,1.000,-90.00,180.00,0.00,OPEN,0
672756.089,0,0,0,1.000,1.000,1.000,-90.00,180.00,0.00,OPEN,0
672756.139,0,0,0,1.000,1.000,1.000,-90.00,180.00,0.00,OPEN,0
672756.189,0,0,0,1.000,1.000,1.000,-90.00,180.00,0.00,OPEN,0
672756.239,0,0,0,1.000,1.000,1.000,-90.00,180.00,0.00,OPEN,0
672756.289,0,0,0,1.000,1.000,1.000,-90.00,180.00,0.00,OPEN,0
672756.339,0,0,0,1.000,1.000,1.000,-90.00,180.00,0.00,OPEN,0
672756.389,0,0,0,1.000,1.000,1.000,-90.00,180.00,0.00,OPEN,0
672756.439,0,0,0,1.000,1.000,1.000,-90.00,180.00,0.00,OPEN,0
672756.489,0,0,0,1.000,1.000,1.000,-90.00,180.00,0.00,OPEN,0
672756.539,0,0,0,1.000,1.000,1.000,-90.00,180.00,0.00,OPEN,0
672756.589,0,0,0,1.000,1.000,1.000,-90.00,180.00,0.00,OPEN,0
672756.639,0,0,0,1.000,1.000,1.000,-90.00,180.00,0.00,OPEN,0
672756.689,0,0,0,1.000,1.000,1.000,-90.00,180.00,0.00,OPEN,0
672756.739,0,0,0,1.000,1.000,1.000,-90.00,180.00,0.00,OPEN,0
672756.790,0,0,0,1.000,1.000,1.000,-90.00,180.00,0.00,OPEN,0
672756.839,0,0,0,1.000,1.000,1.000,-90.00,180.00,0.00,OPEN,0
672756.889,0,0,0,1.000,1.000,1.000,-90.00,180.00,0.00,OPEN,0
672756.939,0,0,0,1.000,1.000,1.000,-90.00,180.00,0.00,OPEN,0
672756.989,0,0,0,0.998,1.000,1.000,-90.00,180.00,0.00,OPEN,0
672757.039,0,0,0,0.993,0.998,1.000,-90.00,180.00,0.00,OPEN,0
672757.089,0,0,0,0.980,0.978,1.000,-90.00,180.00,0.00,OPEN,0
672757.139,0,0,0,0.972,0.957,1.000,-90.00,180.00,0.00,OPEN,0
672757.189,0,0,0,0.958,1.000,1.000,-90.00,180.00,0.00,OPEN,0
672757.239,0,0,0,0.881,1.000,1.000,-90.00,180.00,0.00,OPEN,0
672757.289,0,0,0,0.600,1.000,1.000,-90.00,180.00,0.00,OPEN,0
672757.339,0,0,0,0.496,1.000,1.000,-90.00,180.00,0.00,OPEN,0
672757.389,0,0,0,0.629,1.000,1.000,-90.00,180.00,0.00,OPEN,0
672757.439,0,0,0,0.832,1.000,1.000,-90.00,180.00,0.00,OPEN,0
672757.504,0,0,0,0.889,1.000,1.000,-90.00,180.00,0.00,OPEN,0
672757.541,0,0,0,0.903,1.000,1.000,-90.00,180.00,0.00,OPEN,0
672757.588,0,0,0,0.939,1.000,1.000,-90.00,180.00,0.00,OPEN,0
672757.640,0,0,0,0.955,1.000,1.000,-90.00,180.00,0.00,OPEN,0
672757.689,0,0,0,0.949,1.000,1.000,-90.00,180.00,0.00,OPEN,0
672757.739,2,0,0,0.898,1.000,1.000,-90.00,180.00,0.00,OPEN,0
672757.790,2,0,0,0.730,1.000,1.000,-90.00,180.00,0.00,OPEN,0
672757.839,2,0,0,0.525,1.000,1.000,-90.00,180.00,0.00,OPEN,0
672757.889,2,0,0,0.780,1.000,1.000,-90.00,180.00,0.00,OPEN,0
672757.939,2,0,0,0.922,1.000,1.000,-90.00,180.00,0.00,OPEN,0
672757.989,2,0,0,0.972,1.000,1.000,-90.00,180.00,0.00,OPEN,0
672758.038,2,0,0,0.987,1.000,1.000,-90.00,180.00,0.00,OPEN,0
672758.089,2,1,0,0.993,1.000,1.000,-90.00,180.00,0.00,OPEN,0
672758.139,2,1,0,0.996,1.000,1.000,-90.00,180.00,0.00,OPEN,0
672758.188,2,1,0,0.997,1.000,1.000,-90.00,180.00,0.00,OPEN,0
672758.239,0,1,0,0.998,1.000,1.000,-90.00,180.00,0.00,OPEN,0
672758.289,0,1,0,0.998,1.000,1.000,-90.00,180.00,0.00,OPEN,0
672758.339,0,1,0,0.998,1.000,1.000,-90.00,180.00,0.00,OPEN,0
672758.389,0,1,0,0.998,1.000,1.000,-90.00,180.00,0.00,OPEN,0
672758.439,0,1,0,1.000,1.000,1.000,-90.00,180.00,0.00,OPEN,0
672758.489,0,1,0,1.000,1.000,1.000,-90.00,180.00,0.00,OPEN,0
672758.539,0,1,0,1.000,1.000,1.000,-90.00,180.00,0.00,OPEN,0
672758.589,0,1,0,1.000,1.000,1.000,-90.00,180.00,0.00,OPEN,0
672758.639,0,1,0,1.000,1.000,1.000,-90.00,180.00,0.00,OPEN,0
672758.689,0,1,0,1.000,1.000,1.000,-90.00,180.00,0.00,OPEN,0
672758.739,0,1,0,1.000,1.000,1.000,-90.00,180.00,0.00,OPEN,0
672758.796,0,1,0,1.000,1.000,1.000,-90.00,180.00,0.00,OPEN,0
672758.841,0,1,0,1.000,1.000,1.000,-90.00,180.00,0.00,OPEN,0
672758.889,0,1,0,1.000,1.000,1.000,-90.00,180.00,0.00,OPEN,0
672758.939,0,1,0,1.000,1.000,1.000,-90.00,180.00,0.00,OPEN,0
672758.989,0,1,0,1.000,1.000,1.000,-90.00,180.00,0.00,OPEN,0
672759.039,0,1,0,1.000,1.000,1.000,-90.00,180.00,0.00,OPEN,0
672759.089,0,1,0,1.000,1.000,1.000,-90.00,180.00,0.00,OPEN,0
672759.139,0,1,0,1.000,1.000,1.000,-90.00,180.00,0.00,OPEN,0
672759.188,0,1,0,1.000,1.000,1.000,-90.00,180.00,0.00,OPEN,0
672759.239,0,1,0,1.000,1.000,1.000,-90.00,180.00,0.00,OPEN,0
672759.288,0,1,0,1.000,1.000,1.000,-90.00,180.00,0.00,OPEN,0
672759.338,0,1,0,1.000,1.000,1.000,-90.00,180.00,0.00,OPEN,0
672759.389,0,1,0,1.000,1.000,1.000,-90.00,180.00,0.00,OPEN,0
672759.439,0,1,0,1.000,1.000,1.000,-90.00,180.00,0.00,OPEN,0
672759.489,0,1,0,1.000,1.000,1.000,-90.00,180.00,0.00,OPEN,0
672759.539,0,1,0,1.000,1.000,1.000,-90.00,180.00,0.00,OPEN,0
672759.589,0,1,0,1.000,1.000,1.000,-90.00,180.00,0.00,OPEN,0
672759.639,0,1,0,1.000,1.000,1.000,-90.00,180.00,0.00,OPEN,0
672759.688,0,1,0,1.000,1.000,1.000,-90.00,180.00,0.00,OPEN,0
672759.739,0,1,0,1.000,1.000,1.000,-90.00,180.00,0.00,OPEN,0
672759.789,0,1,0,1.000,1.000,1.000,-90.00,180.00,0.00,OPEN,0
672759.839,0,1,0,1.000,1.000,1.000,-90.00,180.00,0.00,OPEN,0
672759.889,0,1,0,1.000,1.000,1.000,-90.00,180.00,0.00,OPEN,0
672759.939,0,1,0,1.000,1.000,1.000,-90.00,180.00,0.00,OPEN,0
672759.989,0,1,0,1.000,1.000,1.000,-90.00,180.00,0.00,OPEN,0
672760.039,0,1,0,1.000,1.000,1.000,-90.00,180.00,0.00,OPEN,0
672760.089,0,1,0,1.000,1.000,1.000,-90.00,180.00,0.00,OPEN,0
672760.139,0,1,0,1.000,1.000,1.000,-90.00,180.00,0.00,OPEN,0
672760.189,0,1,0,1.000,1.000,1.000,-90.00,180.00,0.00,OPEN,0
672760.239,0,1,0,1.000,1.000,1.000,-90.00,180.00,0.00,OPEN,0
672760.289,0,1,0,1.000,1.000,1.000,-90.00,180.00,0.00,OPEN,0
672760.339,0,1,0,1.000,1.000,1.000,-90.00,180.00,0.00,OPEN,0
672760.389,0,1,0,1.000,1.000,1.000,-90.00,180.00,0.00,OPEN,0
672760.439,0,1,0,1.000,1.000,1.000,-90.00,180.00,0.00,OPEN,0
672760.489,0,1,0,1.000,1.000,1.000,-90.00,180.00,0.00,OPEN,0
672760.539,0,1,0,1.000,1.000,1.000,-90.00,180.00,0.00,OPEN,0
672760.589,0,1,0,1.000,1.000,1.000,-90.00,180.00,0.00,OPEN,0
672760.639,0,1,0,1.000,1.000,1.000,-90.00,180.00,0.00,OPEN,0
672760.688,0,1,0,1.000,1.000,1.000,-90.00,180.00,0.00,OPEN,0
672760.739,0,1,0,1.000,1.000,1.000,-90.00,180.00,0.00,OPEN,0
672760.789,0,1,0,1.000,1.000,1.000,-90.00,180.00,0.00,OPEN,0
672760.839,0,1,0,1.000,1.000,1.000,-90.00,180.00,0.00,OPEN,0
672760.889,0,1,0,1.000,1.000,1.000,-90.00,180.00,0.00,OPEN,0
672760.939,0,1,0,1.000,1.000,1.000,-90.00,180.00,0.00,OPEN,0
672760.989,0,1,0,1.000,1.000,1.000,-90.00,180.00,0.00,OPEN,0
672761.039,0,1,0,1.000,1.000,1.000,-90.00,180.00,0.00,OPEN,0
672761.088,0,1,0,1.000,1.000,1.000,-90.00,180.00,0.00,OPEN,0
672761.139,0,1,0,1.000,1.000,1.000,-90.00,180.00,0.00,OPEN,0
672761.189,0,1,0,1.000,1.000,1.000,-90.00,180.00,0.00,OPEN,0
672761.239,0,1,0,1.000,1.000,1.000,-90.00,180.00,0.00,OPEN,0
672761.289,0,1,0,1.000,1.000,1.000,-90.00,180.00,0.00,OPEN,0
672761.339,0,1,0,1.000,1.000,1.000,-90.00,180.00,0.00,OPEN,0
672761.389,0,1,0,1.000,1.000,1.000,-90.00,180.00,0.00,OPEN,0
672761.439,0,1,0,1.000,1.000,1.000,-90.00,180.00,0.00,OPEN,0
672761.488,0,1,0,1.000,1.000,1.000,-90.00,180.00,0.00,OPEN,0
672761.539,0,1,0,1.000,1.000,1.000,-90.00,180.00,0.00,OPEN,0
672761.589,0,1,0,1.000,1.000,1.000,-90.00,180.00,0.00,OPEN,0
672761.639,0,1,0,1.000,1.000,1.000,-90.00,180.00,0.00,OPEN,0
672761.689,0,1,0,1.000,1.000,1.000,-90.00,180.00,0.00,OPEN,0
672761.739,0,1,0,1.000,1.000,1.000,-90.00,180.00,0.00,OPEN,0
672761.788,0,1,0,1.000,1.000,1.000,-90.00,180.00,0.00,OPEN,0
672761.839,0,1,0,1.000,1.000,1.000,-90.00,180.00,0.00,OPEN,0
672761.889,0,1,0,1.000,1.000,1.000,-90.00,180.00,0.00,OPEN,0
672761.938,0,1,0,1.000,1.000,1.000,-90.00,180.00,0.00,OPEN,0
672761.989,0,1,0,1.000,1.000,1.000,-90.00,180.00,0.00,OPEN,0
672762.039,0,1,0,1.000,1.000,1.000,-90.00,180.00,0.00,OPEN,0
672762.089,0,1,0,1.000,1.000,1.000,-90.00,180.00,0.00,OPEN,0
672762.139,0,1,0,1.000,1.000,1.000,-90.00,180.00,0.00,OPEN,0
672762.201,0,1,0,1.000,1.000,1.000,-90.00,180.00,0.00,OPEN,0
672762.240,0,1,0,1.000,1.000,1.000,-90.00,180.00,0.00,OPEN,0
672762.289,0,1,0,1.000,1.000,1.000,-90.00,180.00,0.00,OPEN,0
672762.339,0,1,0,1.000,1.000,1.000,-90.00,180.00,0.00,OPEN,0
672762.389,0,1,0,1.000,1.000,1.000,-90.00,180.00,0.00,OPEN,0
672762.439,0,1,0,1.000,1.000,1.000,-90.00,180.00,0.00,OPEN,0
672762.489,0,1,0,1.000,1.000,1.000,-90.00,180.00,0.00,OPEN,0
672762.539,0,1,0,1.000,1.000,1.000,-90.00,180.00,0.00,OPEN,0
672762.589,0,1,0,1.000,1.000,1.000,-90.00,180.00,0.00,OPEN,0
672762.639,0,1,0,1.000,1.000,1.000,-90.00,180.00,0.00,OPEN,0
672762.689,0,1,0,1.000,1.000,1.000,-90.00,180.00,0.00,OPEN,0
672762.740,0,1,0,1.000,1.000,1.000,-90.00,180.00,0.00,OPEN,0
672762.789,0,1,0,1.000,1.000,1.000,-90.00,180.00,0.00,OPEN,0
672762.840,0,1,0,1.000,1.000,1.000,-90.00,180.00,0.00,OPEN,0
672762.889,0,1,0,1.000,1.000,1.000,-90.00,180.00,0.00,OPEN,0
672762.939,0,1,0,1.000,0.993,1.000,-90.00,180.00,0.00,OPEN,0
672762.989,0,1,0,1.000,0.947,1.000,-90.00,180.00,0.00,OPEN,0
672763.039,0,1,0,1.000,0.842,1.000,-90.00,180.00,0.00,OPEN,0
672763.089,0,1,0,1.000,0.684,1.000,-90.00,180.00,0.00,OPEN,0
672763.139,0,1,0,1.000,0.748,1.000,-90.00,180.00,0.00,OPEN,0
672763.189,0,1,0,1.000,0.994,1.000,-90.00,180.00,0.00,OPEN,0
672763.239,0,1,0,1.000,1.000,1.000,-90.00,180.00,0.00,OPEN,0
672763.289,0,1,0,1.000,1.000,1.000,-90.00,180.00,0.00,OPEN,0
672763.339,0,1,0,1.000,1.000,1.000,-90.00,180.00,0.00,OPEN,0
672763.389,0,1,0,1.000,1.000,1.000,-90.00,180.00,0.00,OPEN,0
672763.439,0,1,0,1.000,1.000,1.000,-90.00,180.00,0.00,OPEN,0
672763.489,0,1,0,1.000,1.000,1.000,-90.00,180.00,0.00,OPEN,0
672763.539,0,1,0,1.000,1.000,1.000,-90.00,180.00,0.00,OPEN,0
672763.589,0,1,0,1.000,1.000,1.000,-90.00,180.00,0.00,OPEN,0
672763.639,0,1,0,1.000,1.000,1.000,-90.00,180.00,0.00,OPEN,0
672763.689,0,1,0,1.000,1.000,1.000,-90.00,180.00,0.00,OPEN,0
672763.739,0,1,0,1.000,1.000,1.000,-90.00,180.00,0.00,OPEN,0
672763.789,0,1,0,1.000,1.000,1.000,-90.00,180.00,0.00,OPEN,0
672763.839,0,1,0,1.000,1.000,1.000,-90.00,180.00,0.00,OPEN,0
672763.889,0,1,0,1.000,1.000,1.000,-90.00,180.00,0.00,OPEN,0
672763.939,0,1,0,1.000,1.000,1.000,-90.00,180.00,0.00,OPEN,0
672763.988,0,1,0,1.000,1.000,1.000,-90.00,180.00,0.00,OPEN,0
672764.038,0,1,0,1.000,1.000,1.000,-90.00,180.00,0.00,OPEN,0
672764.089,0,0,0,1.000,1.000,1.000,-90.00,180.00,0.00,OPEN,0
672764.139,0,0,0,1.000,1.000,1.000,-90.00,180.00,0.00,OPEN,0
672764.189,0,0,0,1.000,1.000,1.000,-90.00,180.00,0.00,OPEN,0
672764.239,0,0,0,1.000,1.000,1.000,-90.00,180.00,0.00,OPEN,0
672764.299,0,0,0,1.000,1.000,1.000,-90.00,180.00,0.00,OPEN,0
672764.341,0,0,0,1.000,1.000,1.000,-90.00,180.00,0.00,OPEN,0
672764.389,0,0,0,1.000,1.000,1.000,-90.00,180.00,0.00,OPEN,0
672764.439,0,0,0,1.000,1.000,1.000,-90.00,180.00,0.00,OPEN,0
672764.490,0,0,0,1.000,1.000,1.000,-90.00,180.00,0.00,OPEN,0
672764.539,0,0,0,1.000,1.000,1.000,-90.00,180.00,0.00,OPEN,0
672764.588,0,0,0,1.000,1.000,1.000,-90.00,180.00,0.00,OPEN,0
672764.639,0,0,0,1.000,1.000,1.000,-90.00,180.00,0.00,OPEN,0
672764.689,0,0,0,1.000,1.000,1.000,-90.00,180.00,0.00,OPEN,0
672764.739,0,0,0,1.000,1.000,1.000,-90.00,180.00,0.00,OPEN,0
672764.789,0,0,0,1.000,1.000,1.000,-90.00,180.00,0.00,OPEN,0
672764.839,0,0,0,1.000,1.000,1.000,-90.00,180.00,0.00,OPEN,0
672764.889,0,0,0,1.000,1.000,1.000,-90.00,180.00,0.00,OPEN,0
672764.939,0,0,0,1.000,1.000,1.000,-90.00,180.00,0.00,OPEN,0
672764.989,0,0,0,1.000,1.000,1.000,-90.00,180.00,0.00,OPEN,0
672765.039,0,0,0,1.000,1.000,1.000,-90.00,180.00,0.00,OPEN,0
672765.089,0,0,0,1.000,1.000,1.000,-90.00,180.00,0.00,OPEN,0
672765.139,0,0,0,1.000,1.000,1.000,-90.00,180.00,0.00,OPEN,0
672765.189,0,0,0,1.000,1.000,1.000,-90.00,180.00,0.00,OPEN,0
672765.239,0,0,0,1.000,1.000,1.000,-90.00,180.00,0.00,OPEN,0
672765.289,0,0,0,1.000,1.000,1.000,-90.00,180.00,0.00,OPEN,0
672765.339,0,0,0,1.000,1.000,1.000,-90.00,180.00,0.00,OPEN,0
672765.389,0,0,0,1.000,1.000,1.000,-90.00,180.00,0.00,OPEN,0
672765.439,0,0,0,1.000,1.000,1.000,-90.00,180.00,0.00,OPEN,0
672765.489,0,0,0,1.000,1.000,1.000,-90.00,180.00,0.00,OPEN,0
672765.539,0,0,0,1.000,1.000,1.000,-90.00,180.00,0.00,OPEN,0
672765.589,0,0,0,1.000,1.000,1.000,-90.00,180.00,0.00,OPEN,0
672765.639,0,0,0,1.000,1.000,1.000,-90.00,180.00,0.00,OPEN,0
672765.689,0,0,0,1.000,1.000,1.000,-90.00,180.00,0.00,OPEN,0
672765.740,0,0,0,1.000,1.000,1.000,-90.00,180.00,0.00,OPEN,0
672765.789,0,0,0,1.000,1.000,1.000,-90.00,180.00,0.00,OPEN,0
672765.839,0,0,0,1.000,1.000,1.000,-90.00,180.00,0.00,OPEN,0
672765.889,0,0,0,1.000,1.000,1.000,-90.00,180.00,0.00,OPEN,0
672765.939,0,0,0,1.000,1.000,1.000,-90.00,180.00,0.00,OPEN,0
672765.989,0,0,0,1.000,1.000,1.000,-90.00,180.00,0.00,OPEN,0
672766.039,0,0,0,1.000,1.000,1.000,-90.00,180.00,0.00,OPEN,0
672766.089,0,0,0,1.000,1.000,1.000,-90.00,180.00,0.00,OPEN,0
672766.139,0,0,0,1.000,1.000,1.000,-90.00,180.00,0.00,OPEN,0
672766.189,0,0,0,1.000,1.000,1.000,-90.00,180.00,0.00,OPEN,0
672766.239,0,0,0,1.000,1.000,1.000,-90.00,180.00,0.00,OPEN,0
672766.289,0,0,0,1.000,1.000,1.000,-90.00,180.00,0.00,OPEN,0
672766.339,0,0,0,1.000,1.000,1.000,-90.00,180.00,0.00,OPEN,0
672766.389,0,0,0,1.000,1.000,1.000,-90.00,180.00,0.00,OPEN,0
672766.439,0,0,0,1.000,1.000,1.000,-90.00,180.00,0.00,OPEN,0
672766.489,0,0,0,1.000,1.000,1.000,-90.00,180.00,0.00,OPEN,0
672766.539,0,0,0,1.000,1.000,1.000,-90.00,180.00,0.00,OPEN,0
672766.589,0,0,0,1.000,1.000,1.000,-90.00,180.00,0.00,OPEN,0
672766.639,0,0,0,1.000,1.000,1.000,-90.00,180.00,0.00,OPEN,0
672766.689,0,0,0,1.000,1.000,1.000,-90.00,180.00,0.00,OPEN,0
672766.749,0,0,0,1.000,1.000,1.000,-90.00,180.00,0.00,OPEN,0
672766.792,0,0,0,1.000,1.000,1.000,-90.00,180.00,0.00,OPEN,0
672766.839,0,0,0,1.000,1.000,1.000,-90.00,180.00,0.00,OPEN,0
672766.889,0,0,0,1.000,1.000,1.000,-90.00,180.00,0.00,OPEN,0
672766.939,0,0,0,1.000,1.000,1.000,-90.00,180.00,0.00,OPEN,0
672766.989,0,0,0,1.000,1.000,1.000,-90.00,180.00,0.00,OPEN,0
672767.039,0,0,0,1.000,1.000,1.000,-90.00,180.00,0.00,OPEN,0
672767.089,0,0,0,1.000,1.000,1.000,-90.00,180.00,0.00,OPEN,0
672767.138,0,0,0,1.000,1.000,1.000,-90.00,180.00,0.00,OPEN,0
672767.189,0,0,0,1.000,1.000,1.000,-90.00,180.00,0.00,OPEN,0
672767.239,0,0,0,1.000,1.000,1.000,-90.00,180.00,0.00,OPEN,0
672767.289,0,0,0,1.000,1.000,1.000,-90.00,180.00,0.00,OPEN,0
672767.339,0,0,0,1.000,1.000,1.000,-90.00,180.00,0.00,OPEN,0
672767.389,0,0,0,1.000,1.000,1.000,-90.00,180.00,0.00,OPEN,0
672767.439,0,0,0,1.000,1.000,1.000,-90.00,180.00,0.00,OPEN,0
672767.489,0,0,0,1.000,1.000,1.000,-90.00,180.00,0.00,OPEN,0
672767.539,0,0,0,1.000,1.000,1.000,-90.00,180.00,0.00,OPEN,0
672767.589,0,0,0,1.000,1.000,1.000,-90.00,180.00,0.00,OPEN,0
672767.640,0,0,0,1.000,1.000,1.000,-90.00,180.00,0.00,OPEN,0
672767.690,0,0,0,1.000,1.000,1.000,-90.00,180.00,0.00,OPEN,0
672767.739,0,0,0,1.000,1.000,1.000,-90.00,180.00,0.00,OPEN,0
672767.789,0,0,0,1.000,1.000,1.000,-90.00,180.00,0.00,OPEN,0
672767.839,0,0,0,1.000,1.000,1.000,-90.00,180.00,0.00,OPEN,0
672767.889,0,0,0,1.000,1.000,1.000,-90.00,180.00,0.00,OPEN,0
672767.939,0,0,0,1.000,1.000,1.000,-90.00,180.00,0.00,OPEN,0
672767.988,0,0,0,1.000,1.000,1.000,-90.00,180.00,0.00,OPEN,0
672768.039,0,0,0,1.000,1.000,1.000,-90.00,180.00,0.00,OPEN,0
672768.088,0,0,0,1.000,1.000,1.000,-90.00,180.00,0.00,OPEN,0
672768.139,0,0,0,1.000,1.000,1.000,-90.00,180.00,0.00,OPEN,0
672768.189,0,0,0,1.000,1.000,1.000,-90.00,180.00,0.00,OPEN,0
672768.238,0,0,0,1.000,1.000,1.000,-90.00,180.00,0.00,OPEN,0
672768.289,0,0,0,1.000,1.000,1.000,-90.00,180.00,0.00,OPEN,0
672768.359,0,0,0,1.000,1.000,1.000,-90.00,180.00,0.00,OPEN,0
672768.391,0,0,0,1.000,1.000,1.000,-90.00,180.00,0.00,OPEN,0
672768.439,0,0,0,1.000,1.000,1.000,-90.00,180.00,0.00,OPEN,0
672768.489,0,0,0,1.000,1.000,1.000,-90.00,180.00,0.00,OPEN,0
672768.539,0,0,0,1.000,1.000,1.000,-90.00,180.00,0.00,OPEN,0
672768.589,0,0,0,1.000,1.000,1.000,-90.00,180.00,0.00,OPEN,0
672768.639,0,0,0,1.000,1.000,1.000,-90.00,180.00,0.00,OPEN,0
672768.689,0,0,0,1.000,1.000,1.000,-90.00,180.00,0.00,OPEN,0
672768.739,0,0,0,1.000,1.000,1.000,-90.00,180.00,0.00,OPEN,0
672768.789,0,0,0,1.000,1.000,1.000,-90.00,180.00,0.00,OPEN,0
672768.839,0,0,0,1.000,1.000,1.000,-90.00,180.00,0.00,OPEN,0
672768.889,0,0,0,1.000,1.000,1.000,-90.00,180.00,0.00,OPEN,0
672768.939,0,0,0,1.000,1.000,1.000,-90.00,180.00,0.00,OPEN,0
672768.989,0,0,0,1.000,1.000,1.000,-90.00,180.00,0.00,OPEN,0
672769.039,0,0,0,1.000,1.000,1.000,-90.00,180.00,0.00,OPEN,0
672769.089,0,0,0,1.000,1.000,1.000,-90.00,180.00,0.00,OPEN,0
672769.139,0,0,0,1.000,1.000,1.000,-90.00,180.00,0.00,OPEN,0
672769.189,0,0,0,1.000,1.000,1.000,-90.00,180.00,0.00,OPEN,0
672769.239,0,0,0,1.000,1.000,1.000,-90.00,180.00,0.00,OPEN,0
672769.289,0,0,0,1.000,1.000,1.000,-90.00,180.00,0.00,OPEN,0
672769.341,0,0,0,1.000,1.000,1.000,-90.00,180.00,0.00,OPEN,0
672769.389,0,0,0,1.000,1.000,1.000,-90.00,180.00,0.00,OPEN,0
672769.439,0,0,0,1.000,1.000,1.000,-90.00,180.00,0.00,OPEN,0
672769.489,0,0,0,1.000,1.000,1.000,-90.00,180.00,0.00,OPEN,0
672769.539,0,0,0,1.000,1.000,1.000,-90.00,180.00,0.00,OPEN,0
672769.589,0,0,0,1.000,1.000,1.000,-90.00,180.00,0.00,OPEN,0
672769.639,0,0,0,1.000,1.000,1.000,-90.00,180.00,0.00,OPEN,0
672769.689,0,0,0,1.000,1.000,1.000,-90.00,180.00,0.00,OPEN,0
672769.739,0,0,0,1.000,1.000,1.000,-90.00,180.00,0.00,OPEN,0
672769.789,0,0,0,1.000,1.000,1.000,-90.00,180.00,0.00,OPEN,0
672769.840,0,0,0,1.000,1.000,1.000,-90.00,180.00,0.00,OPEN,0
672769.890,0,0,0,1.000,1.000,1.000,-90.00,180.00,0.00,OPEN,0
672769.956,0,0,0,1.000,1.000,1.000,-90.00,180.00,0.00,OPEN,0
672769.990,0,0,0,1.000,1.000,1.000,-90.00,180.00,0.00,OPEN,0
672770.038,0,0,0,1.000,1.000,1.000,-90.00,180.00,0.00,OPEN,0
672770.089,0,0,0,1.000,1.000,1.000,-90.00,180.00,0.00,OPEN,0
672770.139,0,0,0,1.000,1.000,1.000,-90.00,180.00,0.00,OPEN,0
672770.193,0,0,0,1.000,1.000,1.000,-90.00,180.00,0.00,OPEN,0
672770.238,0,0,0,1.000,1.000,1.000,-90.00,180.00,0.00,OPEN,0
672770.289,0,0,0,1.000,1.000,1.000,-90.00,180.00,0.00,OPEN,0
672770.339,0,0,0,1.000,1.000,1.000,-90.00,180.00,0.00,OPEN,0
672770.388,0,0,0,1.000,1.000,1.000,-90.00,180.00,0.00,OPEN,0
672770.439,0,0,0,1.000,1.000,1.000,-90.00,180.00,0.00,OPEN,0
672770.489,0,0,0,1.000,1.000,1.000,-90.00,180.00,0.00,OPEN,0
672770.539,0,0,0,1.000,1.000,1.000,-90.00,180.00,0.00,OPEN,0
672770.590,0,0,0,1.000,1.000,1.000,-90.00,180.00,0.00,OPEN,0
672770.639,0,0,0,1.000,1.000,0.999,-90.00,180.00,0.00,OPEN,0
672770.689,0,0,0,0.999,1.000,0.990,-90.00,180.00,0.00,OPEN,0
672770.739,0,0,0,0.999,1.000,0.947,-90.00,180.00,0.00,OPEN,0
672770.789,0,0,0,1.000,0.997,0.840,-90.00,180.00,0.00,OPEN,0
672770.839,0,0,0,1.000,0.948,0.678,-90.00,180.00,0.00,OPEN,0
672770.889,0,0,0,1.000,0.754,0.528,-90.00,180.00,0.00,OPEN,0
672770.939,0,0,0,1.000,0.996,0.731,-90.00,180.00,0.00,OPEN,0
672770.989,0,0,0,0.999,1.000,0.896,-90.00,180.00,0.00,OPEN,0
672771.040,0,0,0,0.992,1.000,0.980,-90.00,180.00,0.00,OPEN,0
672771.089,0,0,0,0.981,1.000,0.996,-90.00,180.00,0.00,OPEN,0
672771.138,0,0,0,0.999,1.000,0.999,-90.00,180.00,0.00,OPEN,0
672771.189,0,0,0,1.000,1.000,1.000,-90.00,180.00,0.00,OPEN,0
672771.239,0,0,0,1.000,1.000,1.000,-90.00,180.00,0.00,OPEN,0
672771.289,0,0,0,1.000,1.000,1.000,-90.00,180.00,0.00,OPEN,0
672771.340,0,0,0,1.000,1.000,1.000,-90.00,180.00,0.00,OPEN,0
672771.389,0,0,0,1.000,1.000,1.000,-90.00,180.00,0.00,OPEN,0
672771.462,0,0,0,1.000,1.000,1.000,-90.00,180.00,0.00,OPEN,0
672771.490,0,0,0,1.000,1.000,1.000,-90.00,180.00,0.00,OPEN,0
672771.539,0,0,0,1.000,1.000,1.000,-90.00,180.00,0.00,OPEN,0
672771.589,0,0,0,1.000,1.000,1.000,-90.00,180.00,0.00,OPEN,0
672771.639,0,0,0,0.999,1.000,1.000,-90.00,180.00,0.00,OPEN,0
672771.689,0,0,0,0.995,1.000,1.000,-90.00,180.00,0.00,OPEN,0
672771.739,0,0,0,0.990,1.000,1.000,-90.00,180.00,0.00,OPEN,0
672771.789,0,0,0,1.000,0.969,1.000,-90.00,180.00,0.00,OPEN,0
672771.840,0,1,1,1.000,0.991,1.000,-90.00,180.00,0.00,OPEN,0
672771.890,0,1,1,1.000,1.000,1.000,-90.00,180.00,0.00,OPEN,0
672771.939,0,1,1,1.000,1.000,1.000,-90.00,180.00,0.00,OPEN,0
672771.989,0,1,1,1.000,1.000,1.000,-90.00,180.00,0.00,OPEN,0
672772.039,0,1,1,1.000,1.000,1.000,-90.00,180.00,0.00,OPEN,0
672772.090,0,1,1,1.000,1.000,1.000,-90.00,180.00,0.00,OPEN,0
672772.138,0,1,1,1.000,1.000,1.000,-90.00,180.00,0.00,OPEN,0
672772.189,0,1,1,1.000,1.000,1.000,-90.00,180.00,0.00,OPEN,0
672772.238,0,1,1,1.000,1.000,1.000,-90.00,180.00,0.00,OPEN,0
672772.289,0,1,1,1.000,1.000,1.000,-90.00,180.00,0.00,OPEN,0
672772.339,0,1,1,1.000,1.000,1.000,-90.00,180.00,0.00,OPEN,0
672772.389,0,1,1,1.000,1.000,1.000,-90.00,180.00,0.00,OPEN,0
672772.438,0,1,1,1.000,1.000,1.000,-90.00,180.00,0.00,OPEN,0
672772.489,0,1,1,1.000,1.000,1.000,-90.00,180.00,0.00,OPEN,0
672772.539,0,1,1,1.000,1.000,1.000,-90.00,180.00,0.00,OPEN,0
672772.590,0,1,1,1.000,1.000,1.000,-90.00,180.00,0.00,OPEN,0
672772.639,0,1,1,1.000,1.000,1.000,-90.00,180.00,0.00,OPEN,0
672772.688,0,1,1,1.000,1.000,1.000,-90.00,180.00,0.00,OPEN,0
672772.739,0,0,1,1.000,1.000,1.000,-90.00,180.00,0.00,OPEN,0
672772.789,0,0,1,1.000,0.999,1.000,-90.00,180.00,0.00,OPEN,0
672772.839,0,0,1,1.000,0.997,1.000,-90.00,180.00,0.00,OPEN,0
672772.889,0,0,1,1.000,0.996,1.000,-90.00,180.00,0.00,OPEN,0
672772.939,0,0,1,1.000,0.998,1.000,-90.00,180.00,0.00,OPEN,0
672772.989,0,0,1,1.000,0.999,1.000,-90.00,180.00,0.00,OPEN,0
672773.039,0,0,1,1.000,1.000,1.000,-90.00,180.00,0.00,OPEN,0
672773.089,0,0,1,1.000,1.000,1.000,-90.00,180.00,0.00,OPEN,0
672773.139,0,0,1,1.000,1.000,1.000,-90.00,180.00,0.00,OPEN,0
672773.189,0,0,1,1.000,1.000,1.000,-90.00,180.00,0.00,OPEN,0
672773.239,0,0,1,1.000,1.000,1.000,-90.00,180.00,0.00,OPEN,0
672773.289,0,0,1,1.000,1.000,1.000,-90.00,180.00,0.00,OPEN,0
672773.339,0,0,1,1.000,1.000,1.000,-90.00,180.00,0.00,OPEN,0
672773.388,0,0,1,1.000,1.000,1.000,-90.00,180.00,0.00,OPEN,0
672773.439,0,0,1,1.000,1.000,1.000,-90.00,180.00,0.00,OPEN,0
672773.489,0,0,1,1.000,1.000,1.000,-90.00,180.00,0.00,OPEN,0
672773.539,0,0,1,1.000,1.000,1.000,-90.00,180.00,0.00,OPEN,0
672773.589,0,0,1,1.000,1.000,1.000,-90.00,180.00,0.00,OPEN,0
672773.639,0,0,1,1.000,1.000,1.000,-90.00,180.00,0.00,OPEN,0
672773.689,0,0,1,1.000,1.000,1.000,-90.00,180.00,0.00,OPEN,0
672773.739,0,0,1,1.000,1.000,1.000,-90.00,180.00,0.00,OPEN,0
672773.789,0,0,1,1.000,1.000,1.000,-90.00,180.00,0.00,OPEN,0
672773.839,0,0,1,1.000,1.000,1.000,-90.00,180.00,0.00,OPEN,0
672773.889,0,0,1,1.000,1.000,1.000,-90.00,180.00,0.00,OPEN,0
672773.939,0,0,1,1.000,1.000,1.000,-90.00,180.00,0.00,OPEN,0
672773.989,0,0,1,1.000,1.000,1.000,-90.00,180.00,0.00,OPEN,0
672774.040,0,0,1,1.000,1.000,1.000,-90.00,180.00,0.00,OPEN,0
672774.089,0,0,1,1.000,1.000,1.000,-90.00,180.00,0.00,OPEN,0
672774.139,0,0,1,1.000,1.000,1.000,-90.00,180.00,0.00,OPEN,0
672774.189,0,0,1,1.000,1.000,1.000,-90.00,180.00,0.00,OPEN,0
672774.239,0,0,1,1.000,1.000,1.000,-90.00,180.00,0.00,OPEN,0
672774.290,0,0,1,1.000,1.000,1.000,-90.00,180.00,0.00,OPEN,0
672774.338,0,0,1,1.000,1.000,1.000,-90.00,180.00,0.00,OPEN,0
672774.389,0,0,1,1.000,1.000,1.000,-90.00,180.00,0.00,OPEN,0
672774.458,0,0,1,1.000,1.000,1.000,-90.00,180.00,0.00,OPEN,0
672774.490,0,0,1,1.000,1.000,1.000,-90.00,180.00,0.00,OPEN,0
672774.539,0,0,1,1.000,1.000,1.000,-90.00,180.00,0.00,OPEN,0
672774.588,0,0,1,1.000,1.000,1.000,-90.00,180.00,0.00,OPEN,0
672774.639,0,0,1,1.000,1.000,1.000,-90.00,180.00,0.00,OPEN,0
672774.689,0,0,1,1.000,1.000,1.000,-90.00,180.00,0.00,OPEN,0
672774.739,0,0,1,1.000,1.000,1.000,-90.00,180.00,0.00,OPEN,0
672774.788,0,0,1,1.000,1.000,1.000,-90.00,180.00,0.00,OPEN,0
672774.839,0,0,1,1.000,1.000,1.000,-90.00,180.00,0.00,OPEN,0
672774.889,0,0,1,1.000,1.000,1.000,-90.00,180.00,0.00,OPEN,0
672774.940,0,0,1,1.000,1.000,1.000,-90.00,180.00,0.00,OPEN,0
672774.989,0,0,1,1.000,1.000,1.000,-90.00,180.00,0.00,OPEN,0
672775.039,0,0,1,1.000,1.000,1.000,-90.00,180.00,0.00,OPEN,0
672775.093,0,0,1,1.000,1.000,1.000,-90.00,180.00,0.00,OPEN,0
672775.139,0,0,1,1.000,1.000,1.000,-90.00,180.00,0.00,OPEN,0
672775.189,0,0,1,1.000,1.000,1.000,-90.00,180.00,0.00,OPEN,0
672775.240,0,0,1,1.000,1.000,1.000,-90.00,180.00,0.00,OPEN,0
672775.290,0,0,1,1.000,1.000,1.000,-90.00,180.00,0.00,OPEN,0
672775.339,0,0,1,1.000,1.000,1.000,-90.00,180.00,0.00,OPEN,0
672775.389,0,0,1,1.000,1.000,1.000,-90.00,180.00,0.00,OPEN,0
672775.439,0,0,1,1.000,1.000,1.000,-90.00,180.00,0.00,OPEN,0
672775.489,0,0,1,1.000,1.000,1.000,-90.00,180.00,0.00,OPEN,0
672775.539,0,0,1,1.000,1.000,1.000,-90.00,180.00,0.00,OPEN,0
672775.590,0,0,1,1.000,1.000,1.000,-90.00,180.00,0.00,OPEN,0
672775.639,0,0,1,1.000,1.000,1.000,-90.00,180.00,0.00,OPEN,0
672775.689,0,0,1,1.000,1.000,1.000,-90.00,180.00,0.00,OPEN,0
672775.739,0,0,1,1.000,1.000,1.000,-90.00,180.00,0.00,OPEN,0
672775.789,0,0,1,1.000,1.000,1.000,-90.00,180.00,0.00,OPEN,0
672775.839,0,0,1,1.000,1.000,1.000,-90.00,180.00,0.00,OPEN,0
672775.889,0,0,1,1.000,1.000,1.000,-90.00,180.00,0.00,OPEN,0
672775.939,0,0,1,1.000,1.000,1.000,-90.00,180.00,0.00,OPEN,0
672775.989,0,0,1,1.000,1.000,1.000,-90.00,180.00,0.00,OPEN,0
672776.040,0,0,1,1.000,1.000,1.000,-90.00,180.00,0.00,OPEN,0
672776.089,0,0,1,1.000,1.000,1.000,-90.00,180.00,0.00,OPEN,0
672776.139,0,0,1,1.000,1.000,1.000,-90.00,180.00,0.00,OPEN,0
672776.189,0,0,1,1.000,1.000,1.000,-90.00,180.00,0.00,OPEN,0
672776.239,0,0,1,1.000,1.000,1.000,-90.00,180.00,0.00,OPEN,0
672776.292,0,0,1,1.000,1.000,1.000,-90.00,180.00,0.00,OPEN,0
672776.346,0,0,1,1.000,0.999,1.000,-90.00,180.00,0.00,OPEN,0
672776.390,0,0,1,1.000,0.995,1.000,-90.00,180.00,0.00,OPEN,0
672776.439,0,0,1,1.000,0.752,1.000,-90.00,180.00,0.00,OPEN,0
672776.489,0,0,1,1.000,1.000,1.000,-90.00,180.00,0.00,OPEN,0
672776.539,0,0,1,1.000,1.000,1.000,-90.00,180.00,0.00,OPEN,0
672776.589,0,0,1,0.998,1.000,1.000,-90.00,180.00,0.00,OPEN,0
672776.639,0,0,1,0.993,1.000,1.000,-90.00,180.00,0.00,OPEN,0
672776.689,0,0,1,0.993,1.000,1.000,-90.00,180.00,0.00,OPEN,0
672776.739,0,0,1,0.988,1.000,1.000,-90.00,180.00,0.00,OPEN,0
672776.789,0,0,1,0.978,1.000,1.000,-90.00,180.00,0.00,OPEN,0
672776.840,0,0,1,0.966,1.000,1.000,-90.00,180.00,0.00,OPEN,0
672776.889,0,0,1,0.957,1.000,1.000,-90.00,180.00,0.00,OPEN,0
672776.939,0,0,1,0.943,1.000,0.999,-90.00,180.00,0.00,OPEN,0
672776.989,0,0,1,0.899,1.000,0.996,-90.00,180.00,0.00,OPEN,0
672777.039,0,0,1,0.800,1.000,0.937,-90.00,180.00,0.00,OPEN,0
672777.089,0,0,1,0.792,1.000,0.895,-90.00,180.00,0.00,OPEN,0
672777.139,0,0,1,0.995,1.000,0.698,-90.00,180.00,0.00,OPEN,0
672777.189,0,0,1,1.000,1.000,0.554,-90.00,180.00,0.00,OPEN,0
672777.239,0,0,1,1.000,1.000,0.947,-90.00,180.00,0.00,OPEN,0
672777.289,0,0,1,1.000,1.000,0.993,-90.00,180.00,0.00,OPEN,0
672777.339,0,0,1,1.000,1.000,1.000,-90.00,180.00,0.00,OPEN,0
672777.389,0,1,1,1.000,1.000,1.000,-90.00,180.00,0.00,OPEN,0
672777.439,0,1,1,1.000,1.000,1.000,-90.00,180.00,0.00,OPEN,0
672777.489,0,1,1,1.000,1.000,1.000,-90.00,180.00,0.00,OPEN,0
672777.539,0,1,1,1.000,1.000,1.000,-90.00,180.00,0.00,OPEN,0
672777.589,0,1,1,1.000,0.999,1.000,-90.00,180.00,0.00,OPEN,0
672777.639,0,1,1,1.000,0.993,1.000,-90.00,180.00,0.00,OPEN,0
672777.704,0,1,1,1.000,0.939,1.000,-90.00,180.00,0.00,OPEN,0
672777.740,0,1,1,0.996,0.544,1.000,-90.00,180.00,0.00,OPEN,0
672777.789,0,1,1,0.997,0.868,1.000,-90.00,180.00,0.00,OPEN,0
672777.839,0,1,1,1.000,0.805,1.000,-90.00,180.00,0.00,OPEN,0
672777.889,0,1,1,1.000,0.776,1.000,-90.00,180.00,0.00,OPEN,0
672777.939,0,1,1,1.000,0.828,1.000,-90.00,180.00,0.00,OPEN,0
672777.989,0,1,1,1.000,0.966,1.000,-90.00,180.00,0.00,OPEN,0
672778.039,0,1,1,1.000,0.990,1.000,-90.00,180.00,0.00,OPEN,0
672778.089,0,1,0,1.000,0.997,1.000,-90.00,180.00,0.00,OPEN,0
672778.139,0,1,0,1.000,0.999,1.000,-90.00,180.00,0.00,OPEN,0
672778.190,0,1,0,1.000,1.000,1.000,-90.00,180.00,0.00,OPEN,0
672778.239,0,1,0,1.000,1.000,1.000,-90.00,180.00,0.00,OPEN,0
672778.289,0,1,0,1.000,1.000,1.000,-90.00,180.00,0.00,OPEN,0
672778.339,0,1,0,1.000,1.000,1.000,-90.00,180.00,0.00,OPEN,0
672778.389,0,1,0,1.000,1.000,1.000,-90.00,180.00,0.00,OPEN,0
672778.439,0,1,0,1.000,1.000,1.000,-90.00,180.00,0.00,OPEN,0
672778.489,0,1,0,1.000,1.000,1.000,-90.00,180.00,0.00,OPEN,0
672778.539,0,1,0,1.000,1.000,1.000,-90.00,180.00,0.00,OPEN,0
672778.588,0,1,0,1.000,1.000,1.000,-90.00,180.00,0.00,OPEN,0
672778.639,0,0,0,1.000,1.000,1.000,-90.00,180.00,0.00,OPEN,0
672778.689,0,0,0,1.000,1.000,1.000,-90.00,180.00,0.00,OPEN,0
672778.739,0,0,0,1.000,1.000,1.000,-90.00,180.00,0.00,OPEN,0
672778.789,0,0,0,1.000,1.000,1.000,-90.00,180.00,0.00,OPEN,0
672778.839,0,0,0,1.000,1.000,1.000,-90.00,180.00,0.00,OPEN,0
672778.889,0,0,0,1.000,1.000,1.000,-90.00,180.00,0.00,OPEN,0
672778.939,0,0,0,1.000,1.000,1.000,-90.00,180.00,0.00,OPEN,0
672778.989,0,0,0,1.000,1.000,1.000,-90.00,180.00,0.00,OPEN,0
672779.039,0,0,0,1.000,1.000,1.000,-90.00,180.00,0.00,OPEN,0
672779.089,0,0,0,1.000,1.000,1.000,-90.00,180.00,0.00,OPEN,0
672779.138,0,0,0,1.000,1.000,1.000,-90.00,180.00,0.00,OPEN,0
672779.189,0,0,0,1.000,1.000,1.000,-90.00,180.00,0.00,OPEN,0
672779.239,0,0,0,1.000,1.000,1.000,-90.00,180.00,0.00,OPEN,0
672779.289,0,0,0,1.000,1.000,1.000,-90.00,180.00,0.00,OPEN,0
672779.339,0,0,0,1.000,1.000,1.000,-90.00,180.00,0.00,OPEN,0
672779.389,0,0,0,1.000,1.000,1.000,-90.00,180.00,0.00,OPEN,0
672779.439,0,0,0,1.000,1.000,1.000,-90.00,180.00,0.00,OPEN,0
672779.489,0,0,0,1.000,1.000,1.000,-90.00,180.00,0.00,OPEN,0
672779.539,0,0,0,1.000,1.000,1.000,-90.00,180.00,0.00,OPEN,0
672779.589,0,0,0,1.000,1.000,1.000,-90.00,180.00,0.00,OPEN,0
672779.639,0,0,0,1.000,1.000,1.000,-90.00,180.00,0.00,OPEN,0
672779.689,0,0,0,1.000,1.000,1.000,-90.00,180.00,0.00,OPEN,0
672779.739,0,0,0,1.000,1.000,1.000,-90.00,180.00,0.00,OPEN,0
672779.789,0,0,0,1.000,1.000,1.000,-90.00,180.00,0.00,OPEN,0
672779.839,0,0,0,1.000,1.000,1.000,-90.00,180.00,0.00,OPEN,0
672779.889,0,0,0,1.000,1.000,1.000,-90.00,180.00,0.00,OPEN,0
672779.939,0,0,0,1.000,1.000,1.000,-90.00,180.00,0.00,OPEN,0
672779.989,0,0,0,1.000,1.000,1.000,-90.00,180.00,0.00,OPEN,0
672780.038,0,0,0,1.000,1.000,1.000,-90.00,180.00,0.00,OPEN,0
672780.089,0,0,0,1.000,1.000,1.000,-90.00,180.00,0.00,OPEN,0
672780.139,0,0,0,1.000,1.000,1.000,-90.00,180.00,0.00,OPEN,0
672780.189,0,0,0,1.000,1.000,1.000,-90.00,180.00,0.00,OPEN,0
672780.239,0,0,0,1.000,1.000,1.000,-90.00,180.00,0.00,OPEN,0
672780.289,0,0,0,1.000,1.000,1.000,-90.00,180.00,0.00,OPEN,0
672780.339,0,0,0,1.000,1.000,1.000,-90.00,180.00,0.00,OPEN,0
672780.389,0,0,0,1.000,1.000,1.000,-90.00,180.00,0.00,OPEN,0
672780.439,0,0,0,1.000,1.000,1.000,-90.00,180.00,0.00,OPEN,0
672780.488,0,0,0,1.000,1.000,1.000,-90.00,180.00,0.00,OPEN,0
672780.539,0,0,0,1.000,1.000,1.000,-90.00,180.00,0.00,OPEN,0
672780.588,0,0,0,1.000,1.000,1.000,-90.00,180.00,0.00,OPEN,0
672780.639,0,0,0,1.000,1.000,1.000,-90.00,180.00,0.00,OPEN,0
672780.688,0,0,0,1.000,1.000,1.000,-90.00,180.00,0.00,OPEN,0
672780.739,0,0,0,1.000,1.000,1.000,-90.00,180.00,0.00,OPEN,0
672780.789,0,0,0,1.000,1.000,1.000,-90.00,180.00,0.00,OPEN,0
672780.839,0,0,0,1.000,1.000,1.000,-90.00,180.00,0.00,OPEN,0
672780.890,0,0,0,1.000,1.000,1.000,-90.00,180.00,0.00,OPEN,0
672780.939,0,0,0,1.000,1.000,1.000,-90.00,180.00,0.00,OPEN,0
672780.989,0,0,0,1.000,1.000,1.000,-90.00,180.00,0.00,OPEN,0
672781.039,0,0,0,1.000,1.000,1.000,-90.00,180.00,0.00,OPEN,0
672781.089,0,0,0,1.000,1.000,1.000,-90.00,180.00,0.00,OPEN,0
672781.139,0,0,0,1.000,1.000,1.000,-90.00,180.00,0.00,OPEN,0
672781.189,0,0,0,1.000,1.000,1.000,-90.00,180.00,0.00,OPEN,0
672781.239,0,0,0,1.000,1.000,1.000,-90.00,180.00,0.00,OPEN,0
672781.289,0,0,0,1.000,1.000,1.000,-90.00,180.00,0.00,OPEN,0
672781.356,0,0,0,1.000,1.000,1.000,-90.00,180.00,0.00,OPEN,0
672781.390,0,0,0,1.000,1.000,1.000,-90.00,180.00,0.00,OPEN,0
672781.439,0,0,0,1.000,1.000,1.000,-90.00,180.00,0.00,OPEN,0
672781.489,0,0,0,1.000,1.000,1.000,-90.00,180.00,0.00,OPEN,0
672781.539,0,0,0,1.000,1.000,1.000,-90.00,180.00,0.00,OPEN,0
672781.589,0,0,0,1.000,1.000,1.000,-90.00,180.00,0.00,OPEN,0
672781.639,0,0,0,1.000,1.000,1.000,-90.00,180.00,0.00,OPEN,0
672781.689,0,0,0,1.000,1.000,1.000,-90.00,180.00,0.00,OPEN,0
672781.739,0,0,0,1.000,1.000,1.000,-90.00,180.00,0.00,OPEN,0
672781.788,0,0,0,1.000,1.000,1.000,-90.00,180.00,0.00,OPEN,0
672781.839,0,0,0,1.000,1.000,1.000,-90.00,180.00,0.00,OPEN,0
672781.889,0,0,0,1.000,1.000,1.000,-90.00,180.00,0.00,OPEN,0
672781.940,0,0,0,1.000,1.000,1.000,-90.00,180.00,0.00,OPEN,0
672781.989,0,0,0,1.000,1.000,1.000,-90.00,180.00,0.00,OPEN,0
672782.039,0,0,0,1.000,1.000,1.000,-90.00,180.00,0.00,OPEN,0
672782.089,0,0,0,1.000,1.000,1.000,-90.00,180.00,0.00,OPEN,0
672782.139,0,0,0,1.000,1.000,1.000,-90.00,180.00,0.00,OPEN,0
672782.188,0,0,0,1.000,1.000,1.000,-90.00,180.00,0.00,OPEN,0
672782.239,0,0,0,1.000,1.000,1.000,-90.00,180.00,0.00,OPEN,0
672782.289,0,0,0,1.000,1.000,1.000,-90.00,180.00,0.00,OPEN,0
672782.339,0,0,0,1.000,1.000,1.000,-90.00,180.00,0.00,OPEN,0
672782.389,0,0,0,1.000,1.000,1.000,-90.00,180.00,0.00,OPEN,0
672782.439,0,0,0,1.000,1.000,1.000,-90.00,180.00,0.00,OPEN,0
672782.489,0,0,0,1.000,1.000,1.000,-90.00,180.00,0.00,OPEN,0
672782.539,0,0,0,1.000,1.000,1.000,-90.00,180.00,0.00,OPEN,0
672782.589,0,0,0,1.000,1.000,1.000,-90.00,180.00,0.00,OPEN,0
672782.639,0,0,0,1.000,1.000,1.000,-90.00,180.00,0.00,OPEN,0
672782.689,0,0,0,1.000,1.000,1.000,-90.00,180.00,0.00,OPEN,0
672782.740,0,0,0,1.000,1.000,1.000,-90.00,180.00,0.00,OPEN,0
672782.789,0,0,0,1.000,1.000,1.000,-90.00,180.00,0.00,OPEN,0
672782.839,0,0,0,1.000,1.000,1.000,-90.00,180.00,0.00,OPEN,0
672782.889,0,0,0,1.000,1.000,1.000,-90.00,180.00,0.00,OPEN,0
672782.946,0,0,0,1.000,1.000,1.000,-90.00,180.00,0.00,OPEN,0
672782.989,0,0,0,1.000,1.000,1.000,-90.00,180.00,0.00,OPEN,0
672783.039,0,0,0,1.000,1.000,1.000,-90.00,180.00,0.00,OPEN,0
672783.089,0,0,0,1.000,1.000,1.000,-90.00,180.00,0.00,OPEN,0
672783.140,0,0,0,1.000,1.000,1.000,-90.00,180.00,0.00,OPEN,0
672783.189,0,0,0,1.000,1.000,1.000,-90.00,180.00,0.00,OPEN,0
672783.241,0,0,0,1.000,1.000,1.000,-90.00,180.00,0.00,OPEN,0
672783.289,0,0,0,1.000,1.000,1.000,-90.00,180.00,0.00,OPEN,0
672783.340,0,0,0,1.000,1.000,1.000,-90.00,180.00,0.00,OPEN,0
672783.389,0,0,0,1.000,1.000,1.000,-90.00,180.00,0.00,OPEN,0
672783.440,0,0,0,1.000,1.000,1.000,-90.00,180.00,0.00,OPEN,0
672783.489,0,0,0,1.000,1.000,1.000,-90.00,180.00,0.00,OPEN,0
672783.539,0,0,0,1.000,1.000,1.000,-90.00,180.00,0.00,OPEN,0
672783.589,0,0,0,1.000,1.000,1.000,-90.00,180.00,0.00,OPEN,0
672783.640,0,0,0,1.000,1.000,1.000,-90.00,180.00,0.00,OPEN,0
672783.689,0,0,0,1.000,1.000,1.000,-90.00,180.00,0.00,OPEN,0
672783.739,0,0,0,1.000,1.000,1.000,-90.00,180.00,0.00,OPEN,0
672783.789,0,0,0,1.000,1.000,1.000,-90.00,180.00,0.00,OPEN,0
672783.838,0,0,0,1.000,1.000,1.000,-90.00,180.00,0.00,OPEN,0
672783.890,0,0,0,1.000,1.000,1.000,-90.00,180.00,0.00,OPEN,0
672783.939,0,0,0,1.000,1.000,1.000,-90.00,180.00,0.00,OPEN,0
672783.989,0,0,0,0.999,1.000,1.000,-90.00,180.00,0.00,OPEN,0
672784.039,0,0,0,1.000,1.000,1.000,-90.00,180.00,0.00,OPEN,0
672784.089,0,0,0,0.999,0.985,1.000,-90.00,180.00,0.00,OPEN,0
672784.139,0,0,0,1.000,0.997,0.988,-90.00,180.00,0.00,OPEN,0
672784.189,0,0,0,0.997,1.000,0.522,-90.00,180.00,0.00,OPEN,0
672784.239,0,0,0,0.988,1.000,0.916,-90.00,180.00,0.00,OPEN,0
672784.289,0,0,0,0.988,1.000,0.968,-90.00,180.00,0.00,OPEN,0
672784.340,0,0,0,0.984,1.000,0.974,-90.00,180.00,0.00,OPEN,0
672784.389,0,0,0,0.990,1.000,0.974,-90.00,180.00,0.00,OPEN,0
672784.439,0,0,0,0.993,1.000,0.976,-90.00,180.00,0.00,OPEN,0
672784.498,0,0,0,0.994,1.000,0.962,-90.00,180.00,0.00,OPEN,0
672784.541,0,0,0,0.996,1.000,0.967,-90.00,180.00,0.00,OPEN,0
672784.589,0,0,0,1.000,1.000,0.968,-90.00,180.00,0.00,OPEN,0
672784.639,0,0,0,1.000,1.000,0.942,-90.00,180.00,0.00,OPEN,0
672784.689,0,0,0,1.000,1.000,0.924,-90.00,180.00,0.00,OPEN,0
672784.740,0,0,0,1.000,1.000,0.954,-90.00,180.00,0.00,OPEN,0
672784.789,0,0,0,1.000,1.000,0.982,-90.00,180.00,0.00,OPEN,0
672784.839,0,0,0,1.000,1.000,0.996,-90.00,180.00,0.00,OPEN,0
672784.889,0,0,0,1.000,1.000,1.000,-90.00,180.00,0.00,OPEN,0
672784.939,0,0,0,1.000,1.000,1.000,-90.00,180.00,0.00,OPEN,0
672784.990,0,0,0,1.000,1.000,1.000,-90.00,180.00,0.00,OPEN,0
672785.039,0,1,0,1.000,1.000,1.000,-90.00,180.00,0.00,OPEN,0
672785.089,0,1,0,1.000,1.000,1.000,-90.00,180.00,0.00,OPEN,0
672785.139,0,1,1,1.000,1.000,1.000,-90.00,180.00,0.00,OPEN,0
672785.189,0,1,1,1.000,1.000,1.000,-90.00,180.00,0.00,OPEN,0
672785.239,0,1,1,1.000,0.999,1.000,-90.00,180.00,0.00,OPEN,0
672785.289,0,1,1,1.000,0.991,1.000,-90.00,180.00,0.00,OPEN,0
672785.339,0,1,1,1.000,0.974,1.000,-90.00,180.00,0.00,OPEN,0
672785.389,0,1,1,1.000,0.942,1.000,-90.00,180.00,0.00,OPEN,0
672785.439,0,1,1,1.000,0.925,1.000,-90.00,180.00,0.00,OPEN,0
672785.489,0,1,1,1.000,0.880,1.000,-90.00,180.00,0.00,OPEN,0
672785.539,0,1,1,1.000,0.821,1.000,-90.00,180.00,0.00,OPEN,0
672785.589,0,1,1,1.000,0.805,1.000,-90.00,180.00,0.00,OPEN,0
672785.639,0,1,1,0.999,0.958,1.000,-90.00,180.00,0.00,OPEN,0
672785.688,0,1,1,0.999,0.995,1.000,-90.00,180.00,0.00,OPEN,0
672785.739,0,1,1,0.999,0.999,1.000,-90.00,180.00,0.00,OPEN,0
672785.794,0,1,1,0.998,1.000,1.000,-90.00,180.00,0.00,OPEN,0
672785.839,0,1,1,1.000,1.000,1.000,-90.00,180.00,0.00,OPEN,0
672785.889,0,1,1,1.000,1.000,1.000,-90.00,180.00,0.00,OPEN,0
672785.939,0,1,1,1.000,1.000,1.000,-90.00,180.00,0.00,OPEN,0
672785.989,0,1,1,1.000,1.000,1.000,-90.00,180.00,0.00,OPEN,0
672786.039,0,1,1,1.000,1.000,1.000,-90.00,180.00,0.00,OPEN,0
672786.088,0,1,1,1.000,1.000,1.000,-90.00,180.00,0.00,OPEN,0
672786.139,0,1,1,1.000,1.000,1.000,-90.00,180.00,0.00,OPEN,0
672786.189,0,1,1,1.000,1.000,1.000,-90.00,180.00,0.00,OPEN,0
672786.239,0,1,1,1.000,1.000,1.000,-90.00,180.00,0.00,OPEN,0
672786.289,0,1,1,1.000,1.000,1.000,-90.00,180.00,0.00,OPEN,0
672786.339,0,1,1,1.000,1.000,1.000,-90.00,180.00,0.00,OPEN,0
672786.389,0,1,1,1.000,1.000,1.000,-90.00,180.00,0.00,OPEN,0
672786.439,0,1,1,1.000,1.000,1.000,-90.00,180.00,0.00,OPEN,0
672786.489,0,1,1,1.000,1.000,1.000,-90.00,180.00,0.00,OPEN,0
672786.539,0,1,1,1.000,1.000,1.000,-90.00,180.00,0.00,OPEN,0
672786.589,0,1,1,1.000,1.000,1.000,-90.00,180.00,0.00,OPEN,0
672786.639,0,1,1,1.000,1.000,1.000,-90.00,180.00,0.00,OPEN,0
672786.689,0,1,1,1.000,1.000,1.000,-90.00,180.00,0.00,OPEN,0
672786.739,0,1,1,1.000,1.000,1.000,-90.00,180.00,0.00,OPEN,0
672786.789,0,1,1,1.000,1.000,1.000,-90.00,180.00,0.00,OPEN,0
672786.839,0,1,1,1.000,1.000,1.000,-90.00,180.00,0.00,OPEN,0
672786.889,0,1,1,1.000,1.000,1.000,-90.00,180.00,0.00,OPEN,0
672786.939,0,1,1,1.000,1.000,1.000,-90.00,180.00,0.00,OPEN,0
672786.989,0,1,1,1.000,1.000,1.000,-90.00,180.00,0.00,OPEN,0
672787.039,0,1,1,1.000,1.000,1.000,-90.00,180.00,0.00,OPEN,0
672787.089,0,1,1,1.000,1.000,1.000,-90.00,180.00,0.00,OPEN,0
672787.139,0,1,1,1.000,1.000,1.000,-90.00,180.00,0.00,OPEN,0
672787.189,0,1,1,1.000,1.000,1.000,-90.00,180.00,0.00,OPEN,0
672787.239,0,1,1,1.000,1.000,1.000,-90.00,180.00,0.00,OPEN,0
672787.289,0,1,1,1.000,1.000,1.000,-90.00,180.00,0.00,OPEN,0
672787.339,0,1,1,1.000,1.000,1.000,-90.00,180.00,0.00,OPEN,0
672787.389,0,1,1,1.000,1.000,1.000,-90.00,180.00,0.00,OPEN,0
672787.439,0,1,1,1.000,1.000,1.000,-90.00,180.00,0.00,OPEN,0
672787.488,0,1,1,1.000,1.000,1.000,-90.00,180.00,0.00,OPEN,0
672787.538,0,1,1,1.000,1.000,1.000,-90.00,180.00,0.00,OPEN,0
672787.588,0,1,1,1.000,1.000,1.000,-90.00,180.00,0.00,OPEN,0
672787.638,0,1,1,1.000,1.000,1.000,-90.00,180.00,0.00,OPEN,0
672787.689,0,1,1,1.000,1.000,1.000,-90.00,180.00,0.00,OPEN,0
672787.739,0,1,1,1.000,1.000,1.000,-90.00,180.00,0.00,OPEN,0
672787.789,0,1,1,1.000,1.000,1.000,-90.00,180.00,0.00,OPEN,0
672787.839,0,1,1,1.000,1.000,1.000,-90.00,180.00,0.00,OPEN,0
672787.890,0,1,1,1.000,1.000,1.000,-90.00,180.00,0.00,OPEN,0
672787.939,0,1,1,1.000,1.000,1.000,-90.00,180.00,0.00,OPEN,0
672787.989,0,1,1,1.000,1.000,1.000,-90.00,180.00,0.00,OPEN,0
672788.039,0,1,1,1.000,1.000,1.000,-90.00,180.00,0.00,OPEN,0
672788.089,0,1,1,1.000,1.000,1.000,-90.00,180.00,0.00,OPEN,0
672788.139,0,1,1,1.000,1.000,1.000,-90.00,180.00,0.00,OPEN,0
672788.189,0,1,1,1.000,1.000,1.000,-90.00,180.00,0.00,OPEN,0
672788.239,0,1,1,1.000,1.000,1.000,-90.00,180.00,0.00,OPEN,0
672788.289,0,1,1,1.000,1.000,1.000,-90.00,180.00,0.00,OPEN,0
672788.339,0,1,1,1.000,1.000,1.000,-90.00,180.00,0.00,OPEN,0
672788.389,0,1,1,1.000,1.000,1.000,-90.00,180.00,0.00,OPEN,0
672788.439,0,1,1,1.000,1.000,1.000,-90.00,180.00,0.00,OPEN,0
672788.489,0,1,1,1.000,1.000,1.000,-90.00,180.00,0.00,OPEN,0
672788.538,0,1,1,1.000,1.000,1.000,-90.00,180.00,0.00,OPEN,0
672788.588,0,1,1,1.000,1.000,1.000,-90.00,180.00,0.00,OPEN,0
672788.639,0,1,1,1.000,1.000,1.000,-90.00,180.00,0.00,OPEN,0
672788.689,0,1,1,1.000,1.000,1.000,-90.00,180.00,0.00,OPEN,0
672788.739,0,1,1,1.000,1.000,1.000,-90.00,180.00,0.00,OPEN,0
672788.789,0,1,1,1.000,1.000,1.000,-90.00,180.00,0.00,OPEN,0
672788.839,0,1,1,1.000,1.000,1.000,-90.00,180.00,0.00,OPEN,0
672788.888,0,1,1,1.000,1.000,1.000,-90.00,180.00,0.00,OPEN,0
672788.939,0,1,1,1.000,1.000,1.000,-90.00,180.00,0.00,OPEN,0
672788.989,0,1,1,1.000,1.000,1.000,-90.00,180.00,0.00,OPEN,0
672789.039,0,1,1,1.000,1.000,1.000,-90.00,180.00,0.00,OPEN,0
672789.089,0,1,1,1.000,1.000,1.000,-90.00,180.00,0.00,OPEN,0
672789.139,0,1,1,1.000,1.000,1.000,-90.00,180.00,0.00,OPEN,0
672789.189,0,1,1,1.000,1.000,1.000,-90.00,180.00,0.00,OPEN,0
672789.239,0,1,1,1.000,1.000,1.000,-90.00,180.00,0.00,OPEN,0
672789.299,0,1,1,1.000,1.000,1.000,-90.00,180.00,0.00,OPEN,0
672789.340,0,1,1,1.000,1.000,1.000,-90.00,180.00,0.00,OPEN,0
672789.389,0,1,1,1.000,1.000,1.000,-90.00,180.00,0.00,OPEN,0
672789.438,0,1,1,1.000,1.000,1.000,-90.00,180.00,0.00,OPEN,0
672789.489,0,1,1,1.000,1.000,1.000,-90.00,180.00,0.00,OPEN,0
672789.539,0,1,1,1.000,1.000,1.000,-90.00,180.00,0.00,OPEN,0
672789.589,0,1,1,1.000,1.000,1.000,-90.00,180.00,0.00,OPEN,0
672789.639,0,1,1,1.000,1.000,1.000,-90.00,180.00,0.00,OPEN,0
672789.689,0,1,1,1.000,1.000,1.000,-90.00,180.00,0.00,OPEN,0
672789.741,0,1,1,1.000,1.000,1.000,-90.00,180.00,0.00,OPEN,0
672789.789,0,1,1,1.000,1.000,1.000,-90.00,180.00,0.00,OPEN,0
672789.839,0,1,1,1.000,1.000,1.000,-90.00,180.00,0.00,OPEN,0
672789.889,0,1,1,1.000,1.000,1.000,-90.00,180.00,0.00,OPEN,0
672789.939,0,1,1,1.000,1.000,1.000,-90.00,180.00,0.00,OPEN,0
672789.989,0,1,1,1.000,1.000,1.000,-90.00,180.00,0.00,OPEN,0
672790.039,0,1,1,1.000,1.000,1.000,-90.00,180.00,0.00,OPEN,0
672790.089,0,1,1,1.000,1.000,1.000,-90.00,180.00,0.00,OPEN,0
672790.139,0,1,1,1.000,1.000,1.000,-90.00,180.00,0.00,OPEN,0
672790.189,0,1,1,1.000,1.000,1.000,-90.00,180.00,0.00,OPEN,0
672790.239,0,1,1,1.000,1.000,1.000,-90.00,180.00,0.00,OPEN,0
672790.289,0,1,1,1.000,1.000,1.000,-90.00,180.00,0.00,OPEN,0
672790.340,0,1,1,1.000,1.000,1.000,-90.00,180.00,0.00,OPEN,0
672790.389,0,1,1,1.000,1.000,1.000,-90.00,180.00,0.00,OPEN,0
672790.439,0,1,1,1.000,1.000,1.000,-90.00,180.00,0.00,OPEN,0
672790.489,0,1,1,1.000,0.999,1.000,-90.00,180.00,0.00,OPEN,0
672790.539,0,1,1,1.000,0.995,1.000,-90.00,180.00,0.00,OPEN,0
672790.589,0,1,1,1.000,0.975,1.000,-90.00,180.00,0.00,OPEN,0
672790.639,0,1,1,1.000,0.857,0.999,-90.00,180.00,0.00,OPEN,0
672790.689,0,1,1,1.000,0.741,0.998,-90.00,180.00,0.00,OPEN,0
672790.739,0,1,1,1.000,0.639,0.992,-90.00,180.00,0.00,OPEN,0
672790.789,0,1,1,0.999,0.914,0.968,-90.00,180.00,0.00,OPEN,0
672790.839,0,1,1,0.999,0.976,0.877,-90.00,180.00,0.00,OPEN,0
672790.889,0,1,1,0.999,0.990,0.686,-90.00,180.00,0.00,OPEN,0
672790.940,0,1,1,0.998,0.996,0.554,-90.00,180.00,0.00,OPEN,0
672790.999,0,1,1,0.999,0.992,0.619,-90.00,180.00,0.00,OPEN,0
672791.041,0,1,1,0.999,0.995,0.804,-90.00,180.00,0.00,OPEN,0
672791.089,0,1,1,0.999,1.000,0.941,-90.00,180.00,0.00,OPEN,0
672791.139,0,1,1,1.000,1.000,0.996,-90.00,180.00,0.00,OPEN,0
672791.189,0,1,1,1.000,1.000,0.996,-90.00,180.00,0.00,OPEN,0
672791.239,0,1,1,1.000,1.000,0.999,-90.00,180.00,0.00,OPEN,0
672791.289,0,1,1,1.000,1.000,0.999,-90.00,180.00,0.00,OPEN,0
672791.339,0,1,1,1.000,1.000,0.998,-90.00,180.00,0.00,OPEN,0
672791.389,0,1,1,1.000,1.000,0.998,-90.00,180.00,0.00,OPEN,0
672791.439,0,1,1,1.000,1.000,0.995,-90.00,180.00,0.00,OPEN,0
672791.489,0,1,1,1.000,1.000,0.988,-90.00,180.00,0.00,OPEN,0
672791.539,0,1,1,1.000,1.000,0.554,-90.00,180.00,0.00,OPEN,0
672791.589,0,1,1,1.000,0.998,0.952,-90.00,180.00,0.00,OPEN,0
672791.639,0,1,1,1.000,0.994,0.942,-90.00,180.00,0.00,OPEN,0
672791.688,0,0,1,1.000,0.986,0.952,-90.00,180.00,0.00,OPEN,0
672791.739,0,0,1,1.000,0.926,0.977,-90.00,180.00,0.00,OPEN,0
672791.789,0,0,1,1.000,0.668,0.982,-90.00,180.00,0.00,OPEN,0
672791.839,0,0,0,1.000,0.990,0.994,-90.00,180.00,0.00,OPEN,0
672791.889,0,0,0,1.000,1.000,0.994,-90.00,180.00,0.00,OPEN,0
672791.939,0,0,0,1.000,1.000,0.995,-90.00,180.00,0.00,OPEN,0
672791.989,0,0,0,1.000,1.000,0.979,-90.00,180.00,0.00,OPEN,0
672792.039,0,0,0,1.000,1.000,0.965,-90.00,180.00,0.00,OPEN,0
672792.089,0,0,0,1.000,1.000,0.951,-90.00,180.00,0.00,OPEN,0
672792.139,0,0,0,1.000,0.998,0.823,-90.00,180.00,0.00,OPEN,0
672792.189,0,0,0,1.000,0.991,0.642,-90.00,180.00,0.00,OPEN,0
672792.239,0,0,0,1.000,0.915,0.775,-90.00,180.00,0.00,OPEN,0
672792.289,0,0,0,1.000,0.762,0.873,-90.00,180.00,0.00,OPEN,0
672792.339,0,0,0,1.000,0.502,0.918,-90.00,180.00,0.00,OPEN,0
672792.397,0,0,0,1.000,0.719,0.947,-90.00,180.00,0.00,OPEN,0
672792.440,0,0,1,1.000,0.862,0.970,-90.00,180.00,0.00,OPEN,0
672792.489,0,0,1,1.000,0.974,0.993,-90.00,180.00,0.00,OPEN,0
672792.539,0,0,1,1.000,0.996,0.998,-90.00,180.00,0.00,OPEN,0
672792.589,0,0,1,1.000,0.999,0.999,-90.00,180.00,0.00,OPEN,0
672792.639,0,0,1,1.000,1.000,1.000,-90.00,180.00,0.00,OPEN,0
672792.689,0,1,1,1.000,1.000,1.000,-90.00,180.00,0.00,OPEN,0
672792.739,0,1,1,1.000,1.000,1.000,-90.00,180.00,0.00,OPEN,0
672792.790,0,1,1,1.000,1.000,1.000,-90.00,180.00,0.00,OPEN,0
672792.839,0,1,1,1.000,1.000,1.000,-90.00,180.00,0.00,OPEN,0
672792.889,0,1,1,1.000,1.000,1.000,-90.00,180.00,0.00,OPEN,0
672792.938,0,1,1,1.000,1.000,1.000,-90.00,180.00,0.00,OPEN,0
672792.989,0,1,1,1.000,1.000,1.000,-90.00,180.00,0.00,OPEN,0
672793.040,0,1,1,1.000,1.000,1.000,-90.00,180.00,0.00,OPEN,0
672793.090,0,1,0,1.000,1.000,1.000,-90.00,180.00,0.00,OPEN,0
672793.139,0,1,0,1.000,1.000,1.000,-90.00,180.00,0.00,OPEN,0
672793.189,0,1,0,1.000,1.000,1.000,-90.00,180.00,0.00,OPEN,0
672793.238,0,1,0,1.000,1.000,1.000,-90.00,180.00,0.00,OPEN,0
672793.289,0,0,0,1.000,1.000,1.000,-90.00,180.00,0.00,OPEN,0
672793.339,0,0,0,1.000,1.000,1.000,-90.00,180.00,0.00,OPEN,0
672793.389,0,0,0,1.000,1.000,1.000,-90.00,180.00,0.00,OPEN,0
672793.439,0,0,0,1.000,1.000,1.000,-90.00,180.00,0.00,OPEN,0
672793.489,0,0,0,1.000,1.000,1.000,-90.00,180.00,0.00,OPEN,0
672793.538,0,0,0,1.000,1.000,1.000,-90.00,180.00,0.00,OPEN,0
672793.589,0,0,0,1.000,1.000,1.000,-90.00,180.00,0.00,OPEN,0
672793.639,0,0,0,1.000,1.000,1.000,-90.00,180.00,0.00,OPEN,0
672793.689,0,0,0,1.000,1.000,1.000,-90.00,180.00,0.00,OPEN,0
672793.739,0,0,0,1.000,1.000,1.000,-90.00,180.00,0.00,OPEN,0
672793.789,0,0,0,1.000,1.000,1.000,-90.00,180.00,0.00,OPEN,0
672793.839,0,0,0,1.000,1.000,1.000,-90.00,180.00,0.00,OPEN,0
672793.890,0,0,0,1.000,1.000,1.000,-90.00,180.00,0.00,OPEN,0
672793.939,0,0,0,1.000,1.000,1.000,-90.00,180.00,0.00,OPEN,0
672793.989,0,0,0,1.000,1.000,1.000,-90.00,180.00,0.00,OPEN,0
672794.039,0,0,0,1.000,1.000,1.000,-90.00,180.00,0.00,OPEN,0
672794.089,0,0,0,1.000,1.000,1.000,-90.00,180.00,0.00,OPEN,0
672794.139,0,0,0,1.000,1.000,1.000,-90.00,180.00,0.00,OPEN,0
672794.189,0,0,0,1.000,1.000,1.000,-90.00,180.00,0.00,OPEN,0
672794.239,0,0,0,1.000,1.000,1.000,-90.00,180.00,0.00,OPEN,0
672794.289,0,0,0,1.000,1.000,1.000,-90.00,180.00,0.00,OPEN,0
672794.339,0,0,0,1.000,1.000,1.000,-90.00,180.00,0.00,OPEN,0
672794.389,0,0,0,1.000,1.000,1.000,-90.00,180.00,0.00,OPEN,0
672794.439,0,0,0,1.000,1.000,1.000,-90.00,180.00,0.00,OPEN,0
672794.489,0,0,0,1.000,1.000,1.000,-90.00,180.00,0.00,OPEN,0
672794.539,0,0,0,1.000,1.000,1.000,-90.00,180.00,0.00,OPEN,0
672794.589,0,0,0,1.000,1.000,1.000,-90.00,180.00,0.00,OPEN,0
672794.640,0,0,0,1.000,1.000,1.000,-90.00,180.00,0.00,OPEN,0
672794.690,0,0,0,1.000,1.000,1.000,-90.00,180.00,0.00,OPEN,0
672794.739,0,0,0,1.000,1.000,1.000,-90.00,180.00,0.00,OPEN,0
672794.789,0,0,0,1.000,1.000,1.000,-90.00,180.00,0.00,OPEN,0
672794.839,0,0,0,1.000,1.000,1.000,-90.00,180.00,0.00,OPEN,0
672794.889,0,0,0,1.000,1.000,1.000,-90.00,180.00,0.00,OPEN,0
672794.939,0,0,0,1.000,1.000,1.000,-90.00,180.00,0.00,OPEN,0
672794.989,0,0,0,1.000,1.000,1.000,-90.00,180.00,0.00,OPEN,0
672795.039,0,0,0,1.000,1.000,1.000,-90.00,180.00,0.00,OPEN,0
672795.089,0,0,0,1.000,1.000,1.000,-90.00,180.00,0.00,OPEN,0
672795.140,0,0,0,1.000,1.000,1.000,-90.00,180.00,0.00,OPEN,0
672795.189,0,0,0,1.000,1.000,1.000,-90.00,180.00,0.00,OPEN,0
672795.239,0,0,0,1.000,1.000,1.000,-90.00,180.00,0.00,OPEN,0
672795.289,0,0,0,1.000,1.000,1.000,-90.00,180.00,0.00,OPEN,0
672795.339,0,0,0,1.000,1.000,1.000,-90.00,180.00,0.00,OPEN,0
672795.389,0,0,0,1.000,1.000,1.000,-90.00,180.00,0.00,OPEN,0
672795.439,0,0,0,1.000,1.000,1.000,-90.00,180.00,0.00,OPEN,0
672795.489,0,0,0,1.000,1.000,1.000,-90.00,180.00,0.00,OPEN,0
672795.539,0,0,0,1.000,1.000,1.000,-90.00,180.00,0.00,OPEN,0
672795.589,0,0,0,1.000,1.000,1.000,-90.00,180.00,0.00,OPEN,0
672795.639,0,0,0,1.000,1.000,1.000,-90.00,180.00,0.00,OPEN,0
672795.689,0,0,0,1.000,1.000,1.000,-90.00,180.00,0.00,OPEN,0
672795.753,0,0,0,1.000,1.000,1.000,-90.00,180.00,0.00,OPEN,0
672795.790,0,0,0,1.000,1.000,1.000,-90.00,180.00,0.00,OPEN,0
672795.839,0,0,0,1.000,1.000,1.000,-90.00,180.00,0.00,OPEN,0
672795.889,0,0,0,1.000,1.000,1.000,-90.00,180.00,0.00,OPEN,0
672795.939,0,0,0,1.000,1.000,1.000,-90.00,180.00,0.00,OPEN,0
672795.988,0,0,0,1.000,1.000,1.000,-90.00,180.00,0.00,OPEN,0
672796.039,0,0,0,1.000,1.000,1.000,-90.00,180.00,0.00,OPEN,0
672796.089,0,0,0,1.000,1.000,1.000,-90.00,180.00,0.00,OPEN,0
672796.139,0,0,0,1.000,1.000,1.000,-90.00,180.00,0.00,OPEN,0
672796.189,0,0,0,1.000,1.000,1.000,-90.00,180.00,0.00,OPEN,0
672796.239,0,0,0,1.000,1.000,1.000,-90.00,180.00,0.00,OPEN,0
672796.289,0,0,0,1.000,1.000,1.000,-90.00,180.00,0.00,OPEN,0
672796.339,0,0,0,1.000,1.000,1.000,-90.00,180.00,0.00,OPEN,0
672796.389,0,0,0,1.000,1.000,1.000,-90.00,180.00,0.00,OPEN,0
672796.439,0,0,0,1.000,1.000,1.000,-90.00,180.00,0.00,OPEN,0
672796.489,0,0,0,1.000,1.000,1.000,-90.00,180.00,0.00,OPEN,0
672796.539,0,0,0,1.000,1.000,1.000,-90.00,180.00,0.00,OPEN,0
672796.589,0,0,0,1.000,1.000,1.000,-90.00,180.00,0.00,OPEN,0
672796.639,0,0,0,1.000,1.000,1.000,-90.00,180.00,0.00,OPEN,0
672796.690,0,0,0,1.000,1.000,1.000,-90.00,180.00,0.00,OPEN,0
672796.738,0,0,0,1.000,1.000,1.000,-90.00,180.00,0.00,OPEN,0
672796.789,0,0,0,1.000,1.000,1.000,-90.00,180.00,0.00,OPEN,0
672796.839,0,0,0,1.000,1.000,1.000,-90.00,180.00,0.00,OPEN,0
672796.889,0,0,0,1.000,1.000,1.000,-90.00,180.00,0.00,OPEN,0
672796.939,0,0,0,1.000,1.000,1.000,-90.00,180.00,0.00,OPEN,0
672796.990,0,0,0,1.000,1.000,1.000,-90.00,180.00,0.00,OPEN,0
672797.038,0,0,0,1.000,1.000,1.000,-90.00,180.00,0.00,OPEN,0
672797.089,0,0,0,1.000,1.000,1.000,-90.00,180.00,0.00,OPEN,0
672797.140,0,0,0,1.000,1.000,1.000,-90.00,180.00,0.00,OPEN,0
672797.189,0,0,0,1.000,1.000,1.000,-90.00,180.00,0.00,OPEN,0
672797.239,0,0,0,1.000,1.000,1.000,-90.00,180.00,0.00,OPEN,0
672797.289,0,0,0,1.000,1.000,1.000,-90.00,180.00,0.00,OPEN,0
672797.339,0,0,0,1.000,1.000,1.000,-90.00,180.00,0.00,OPEN,0
672797.389,0,0,0,0.990,1.000,1.000,-90.00,180.00,0.00,OPEN,0
672797.439,0,0,0,0.988,1.000,1.000,-90.00,180.00,0.00,OPEN,0
672797.489,0,0,0,0.564,1.000,1.000,-90.00,180.00,0.00,OPEN,0
672797.539,0,0,0,0.740,1.000,1.000,-90.00,180.00,0.00,OPEN,0
672797.589,0,0,0,0.765,1.000,1.000,-90.00,180.00,0.00,OPEN,0
672797.639,0,0,0,0.770,1.000,1.000,-90.00,180.00,0.00,OPEN,0
672797.689,0,0,0,0.847,1.000,1.000,-90.00,180.00,0.00,OPEN,0
672797.739,0,0,0,0.610,1.000,1.000,-90.00,180.00,0.00,OPEN,0
672797.789,0,0,0,0.876,1.000,1.000,-90.00,180.00,0.00,OPEN,0
672797.839,0,0,0,0.973,1.000,1.000,-90.00,180.00,0.00,OPEN,0
672797.889,0,0,0,0.999,1.000,1.000,-90.00,180.00,0.00,OPEN,0
672797.940,3,0,0,1.000,1.000,1.000,-90.00,180.00,0.00,OPEN,0
672798.010,3,0,0,1.000,1.000,1.000,-90.00,180.00,0.00,OPEN,0
672798.045,3,0,0,1.000,1.000,1.000,-90.00,180.00,0.00,OPEN,0
672798.089,3,0,0,1.000,1.000,1.000,-90.00,180.00,0.00,OPEN,0
672798.139,3,0,0,1.000,1.000,1.000,-90.00,180.00,0.00,OPEN,0
672798.189,3,0,0,1.000,1.000,1.000,-90.00,180.00,0.00,OPEN,0
672798.239,3,0,0,1.000,0.993,1.000,-90.00,180.00,0.00,OPEN,0
672798.289,3,0,0,1.000,1.000,1.000,-90.00,180.00,0.00,OPEN,0
672798.339,3,0,0,1.000,1.000,1.000,-90.00,180.00,0.00,OPEN,0
672798.389,3,0,0,1.000,1.000,1.000,-90.00,180.00,0.00,OPEN,0
672798.439,3,0,0,1.000,1.000,1.000,-90.00,180.00,0.00,OPEN,0
672798.488,3,0,0,1.000,1.000,1.000,-90.00,180.00,0.00,OPEN,0
672798.539,3,0,0,1.000,1.000,1.000,-90.00,180.00,0.00,OPEN,0
672798.589,3,0,0,1.000,1.000,1.000,-90.00,180.00,0.00,OPEN,0
672798.639,3,0,0,1.000,1.000,1.000,-90.00,180.00,0.00,OPEN,0
672798.689,3,0,0,1.000,1.000,1.000,-90.00,180.00,0.00,OPEN,0
672798.739,3,0,0,1.000,1.000,1.000,-90.00,180.00,0.00,OPEN,0
672798.788,3,0,0,1.000,1.000,1.000,-90.00,180.00,0.00,OPEN,0
672798.839,3,0,0,1.000,1.000,1.000,-90.00,180.00,0.00,OPEN,0
672798.889,3,0,0,1.000,1.000,1.000,-90.00,180.00,0.00,OPEN,0
672798.939,3,0,0,1.000,1.000,1.000,-90.00,180.00,0.00,OPEN,0
672798.989,3,0,0,1.000,1.000,1.000,-90.00,180.00,0.00,OPEN,0
672799.039,3,0,0,1.000,1.000,1.000,-90.00,180.00,0.00,OPEN,0
672799.089,3,0,0,1.000,1.000,1.000,-90.00,180.00,0.00,OPEN,0
672799.139,3,0,0,1.000,1.000,1.000,-90.00,180.00,0.00,OPEN,0
672799.189,3,1,0,1.000,1.000,1.000,-90.00,180.00,0.00,OPEN,0
672799.239,3,1,0,1.000,1.000,1.000,-90.00,180.00,0.00,OPEN,0
672799.289,3,1,0,1.000,1.000,1.000,-90.00,180.00,0.00,OPEN,0
672799.339,3,1,0,1.000,1.000,1.000,-90.00,180.00,0.00,OPEN,0
672799.389,3,1,0,1.000,1.000,1.000,-90.00,180.00,0.00,OPEN,0
672799.439,3,1,0,1.000,1.000,1.000,-90.00,180.00,0.00,OPEN,0
672799.489,3,1,0,1.000,1.000,1.000,-90.00,180.00,0.00,OPEN,0
672799.539,3,1,0,1.000,1.000,1.000,-90.00,180.00,0.00,OPEN,0
672799.589,3,1,0,1.000,1.000,1.000,-90.00,180.00,0.00,OPEN,0
672799.639,3,1,0,1.000,1.000,1.000,-90.00,180.00,0.00,OPEN,0
672799.689,3,1,0,1.000,1.000,1.000,-90.00,180.00,0.00,OPEN,0
672799.739,3,1,0,1.000,1.000,1.000,-90.00,180.00,0.00,OPEN,0
672799.789,3,1,0,1.000,1.000,1.000,-90.00,180.00,0.00,OPEN,0
672799.839,3,1,0,1.000,1.000,1.000,-90.00,180.00,0.00,OPEN,0
672799.889,3,1,0,1.000,1.000,1.000,-90.00,180.00,0.00,OPEN,0
672799.939,3,1,0,1.000,1.000,1.000,-90.00,180.00,0.00,OPEN,0
672799.989,3,1,0,1.000,1.000,1.000,-90.00,180.00,0.00,OPEN,0
672800.039,3,1,0,1.000,1.000,1.000,-90.00,180.00,0.00,OPEN,0
672800.089,3,1,0,1.000,1.000,1.000,-90.00,180.00,0.00,OPEN,0
672800.139,3,1,0,1.000,1.000,1.000,-90.00,180.00,0.00,OPEN,0
672800.189,3,1,0,1.000,1.000,1.000,-90.00,180.00,0.00,OPEN,0
672800.239,3,1,0,1.000,1.000,1.000,-90.00,180.00,0.00,OPEN,0
672800.289,3,1,0,1.000,1.000,1.000,-90.00,180.00,0.00,OPEN,0
672800.339,3,1,0,1.000,1.000,1.000,-90.00,180.00,0.00,OPEN,0
672800.389,3,1,0,1.000,1.000,1.000,-90.00,180.00,0.00,OPEN,0
672800.439,3,1,0,1.000,1.000,1.000,-90.00,180.00,0.00,OPEN,0
672800.489,3,1,0,1.000,1.000,1.000,-90.00,180.00,0.00,OPEN,0
672800.539,3,1,0,1.000,1.000,1.000,-90.00,180.00,0.00,OPEN,0
672800.589,3,1,0,1.000,1.000,1.000,-90.00,180.00,0.00,OPEN,0
672800.639,3,1,0,1.000,1.000,1.000,-90.00,180.00,0.00,OPEN,0
672800.689,3,1,0,1.000,1.000,1.000,-90.00,180.00,0.00,OPEN,0
672800.739,3,1,0,1.000,1.000,1.000,-90.00,180.00,0.00,OPEN,0
672800.789,3,1,0,1.000,1.000,1.000,-90.00,180.00,0.00,OPEN,0
672800.840,3,1,0,1.000,1.000,1.000,-90.00,180.00,0.00,OPEN,0
672800.889,3,1,0,1.000,1.000,1.000,-90.00,180.00,0.00,OPEN,0
672800.940,3,1,0,1.000,1.000,1.000,-90.00,180.00,0.00,OPEN,0
672800.995,3,1,0,1.000,1.000,1.000,-90.00,180.00,0.00,OPEN,0
672801.039,3,1,0,1.000,1.000,1.000,-90.00,180.00,0.00,OPEN,0
672801.089,3,1,0,1.000,1.000,1.000,-90.00,180.00,0.00,OPEN,0
672801.139,3,1,0,1.000,1.000,1.000,-90.00,180.00,0.00,OPEN,0
672801.189,3,1,0,1.000,1.000,1.000,-90.00,180.00,0.00,OPEN,0
672801.239,3,1,0,1.000,1.000,1.000,-90.00,180.00,0.00,OPEN,0
672801.289,3,1,0,1.000,1.000,1.000,-90.00,180.00,0.00,OPEN,0
672801.339,3,1,0,1.000,1.000,1.000,-90.00,180.00,0.00,OPEN,0
672801.389,3,1,0,1.000,1.000,1.000,-90.00,180.00,0.00,OPEN,0
672801.439,3,1,0,1.000,1.000,1.000,-90.00,180.00,0.00,OPEN,0
672801.489,3,1,0,1.000,1.000,1.000,-90.00,180.00,0.00,OPEN,0
672801.539,3,1,0,1.000,1.000,1.000,-90.00,180.00,0.00,OPEN,0
672801.589,3,1,0,1.000,1.000,1.000,-90.00,180.00,0.00,OPEN,0
672801.639,3,1,0,1.000,1.000,1.000,-90.00,180.00,0.00,OPEN,0
672801.689,3,1,0,1.000,1.000,1.000,-90.00,180.00,0.00,OPEN,0
672801.739,3,1,0,1.000,1.000,1.000,-90.00,180.00,0.00,OPEN,0
672801.789,3,1,0,1.000,1.000,1.000,-90.00,180.00,0.00,OPEN,0
672801.839,3,1,0,1.000,1.000,1.000,-90.00,180.00,0.00,OPEN,0
672801.890,3,1,0,1.000,1.000,1.000,-90.00,180.00,0.00,OPEN,0
672801.939,3,1,0,1.000,1.000,1.000,-90.00,180.00,0.00,OPEN,0
672801.989,3,1,0,1.000,1.000,1.000,-90.00,180.00,0.00,OPEN,0
672802.039,3,1,0,1.000,1.000,1.000,-90.00,180.00,0.00,OPEN,0
672802.089,3,1,0,1.000,1.000,1.000,-90.00,180.00,0.00,OPEN,0
672802.140,3,1,0,1.000,1.000,1.000,-90.00,180.00,0.00,OPEN,0
672802.189,3,1,0,1.000,1.000,1.000,-90.00,180.00,0.00,OPEN,0
672802.239,3,1,0,1.000,1.000,1.000,-90.00,180.00,0.00,OPEN,0
672802.288,3,1,0,1.000,1.000,1.000,-90.00,180.00,0.00,OPEN,0
672802.339,3,1,0,1.000,1.000,1.000,-90.00,180.00,0.00,OPEN,0
672802.389,3,1,0,1.000,1.000,1.000,-90.00,180.00,0.00,OPEN,0
672802.439,3,1,0,1.000,1.000,1.000,-90.00,180.00,0.00,OPEN,0
672802.489,3,1,0,1.000,1.000,1.000,-90.00,180.00,0.00,OPEN,0
672802.539,3,1,0,1.000,1.000,1.000,-90.00,180.00,0.00,OPEN,0
672802.589,3,1,0,1.000,1.000,1.000,-90.00,180.00,0.00,OPEN,0
672802.639,3,1,0,1.000,1.000,1.000,-90.00,180.00,0.00,OPEN,0
672802.689,3,1,0,1.000,1.000,1.000,-90.00,180.00,0.00,OPEN,0
672802.739,3,1,0,1.000,1.000,1.000,-90.00,180.00,0.00,OPEN,0
672802.789,3,1,0,1.000,1.000,1.000,-90.00,180.00,0.00,OPEN,0
672802.839,3,1,0,1.000,1.000,1.000,-90.00,180.00,0.00,OPEN,0
672802.888,3,1,0,1.000,1.000,1.000,-90.00,180.00,0.00,OPEN,0
672802.939,3,1,0,1.000,1.000,1.000,-90.00,180.00,0.00,OPEN,0
672802.989,3,1,0,1.000,1.000,1.000,-90.00,180.00,0.00,OPEN,0
672803.038,3,1,0,1.000,1.000,1.000,-90.00,180.00,0.00,OPEN,0
672803.089,3,1,0,1.000,1.000,1.000,-90.00,180.00,0.00,OPEN,0
672803.139,3,1,0,1.000,1.000,1.000,-90.00,180.00,0.00,OPEN,0
672803.189,3,1,0,1.000,1.000,1.000,-90.00,180.00,0.00,OPEN,0
672803.239,3,1,0,1.000,1.000,1.000,-90.00,180.00,0.00,OPEN,0
672803.289,3,1,0,1.000,1.000,1.000,-90.00,180.00,0.00,OPEN,0
672803.339,3,1,0,1.000,1.000,1.000,-90.00,180.00,0.00,OPEN,0
672803.390,3,1,0,1.000,1.000,1.000,-90.00,180.00,0.00,OPEN,0
672803.439,3,1,0,1.000,1.000,1.000,-90.00,180.00,0.00,OPEN,0
672803.489,3,1,0,1.000,1.000,1.000,-90.00,180.00,0.00,OPEN,0
672803.562,3,1,0,1.000,1.000,1.000,-90.00,180.00,0.00,OPEN,0
672803.591,3,1,0,1.000,1.000,1.000,-90.00,180.00,0.00,OPEN,0
672803.639,3,1,0,1.000,1.000,1.000,-90.00,180.00,0.00,OPEN,0
672803.689,3,1,0,1.000,1.000,1.000,-90.00,180.00,0.00,OPEN,0
672803.739,3,1,0,1.000,1.000,1.000,-90.00,180.00,0.00,OPEN,0
672803.789,3,1,0,1.000,1.000,1.000,-90.00,180.00,0.00,OPEN,0
672803.840,3,1,0,1.000,1.000,1.000,-90.00,180.00,0.00,OPEN,0
672803.890,3,1,0,1.000,1.000,1.000,-90.00,180.00,0.00,OPEN,0
672803.939,3,1,0,1.000,1.000,1.000,-90.00,180.00,0.00,OPEN,0
672803.988,3,1,0,0.999,0.999,1.000,-90.00,180.00,0.00,OPEN,0
672804.038,3,1,0,0.998,0.986,1.000,-90.00,180.00,0.00,OPEN,0
672804.090,3,1,0,0.987,0.544,1.000,-90.00,180.00,0.00,OPEN,0
672804.139,3,1,0,0.807,0.859,1.000,-90.00,180.00,0.00,OPEN,0
672804.190,3,1,0,0.489,0.987,1.000,-90.00,180.00,0.00,OPEN,0
672804.239,3,1,0,0.795,0.994,1.000,-90.00,180.00,0.00,OPEN,0
672804.289,3,1,0,0.951,1.000,1.000,-90.00,180.00,0.00,OPEN,0
672804.339,3,1,0,0.999,1.000,1.000,-90.00,180.00,0.00,OPEN,0
672804.389,3,1,0,0.999,1.000,1.000,-90.00,180.00,0.00,OPEN,0
672804.439,3,1,0,1.000,1.000,1.000,-90.00,180.00,0.00,OPEN,0
672804.489,3,1,0,1.000,1.000,1.000,-90.00,180.00,0.00,OPEN,0
672804.539,3,1,0,1.000,1.000,1.000,-90.00,180.00,0.00,OPEN,0
672804.589,0,1,0,1.000,1.000,1.000,-90.00,180.00,0.00,OPEN,0
672804.639,0,1,0,1.000,1.000,1.000,-90.00,180.00,0.00,OPEN,0
672804.697,0,1,0,1.000,1.000,1.000,-90.00,180.00,0.00,OPEN,0
672804.740,0,1,0,1.000,1.000,1.000,-90.00,180.00,0.00,OPEN,0
672804.789,0,1,0,1.000,1.000,1.000,-90.00,180.00,0.00,OPEN,0
672804.839,0,1,0,1.000,1.000,1.000,-90.00,180.00,0.00,OPEN,0
672804.889,0,1,0,1.000,1.000,1.000,-90.00,180.00,0.00,OPEN,0
672804.938,0,1,0,1.000,1.000,1.000,-90.00,180.00,0.00,OPEN,0
672804.989,0,1,0,1.000,1.000,1.000,-90.00,180.00,0.00,OPEN,0
672805.039,0,0,0,1.000,1.000,1.000,-90.00,180.00,0.00,OPEN,0
672805.089,0,0,0,1.000,1.000,1.000,-90.00,180.00,0.00,OPEN,0
672805.139,0,0,0,1.000,1.000,1.000,-90.00,180.00,0.00,OPEN,0
672805.189,0,0,0,1.000,1.000,1.000,-90.00,180.00,0.00,OPEN,0
672805.239,0,0,0,1.000,1.000,1.000,-90.00,180.00,0.00,OPEN,0
672805.289,0,0,0,1.000,1.000,1.000,-90.00,180.00,0.00,OPEN,0
672805.339,0,0,0,1.000,1.000,1.000,-90.00,180.00,0.00,OPEN,0
672805.389,0,0,0,1.000,1.000,1.000,-90.00,180.00,0.00,OPEN,0
672805.438,0,0,0,1.000,1.000,1.000,-90.00,180.00,0.00,OPEN,0
672805.489,0,0,0,1.000,1.000,1.000,-90.00,180.00,0.00,OPEN,0
672805.539,0,0,0,1.000,1.000,1.000,-90.00,180.00,0.00,OPEN,0
672805.589,0,0,0,1.000,1.000,1.000,-90.00,180.00,0.00,OPEN,0
672805.639,0,0,0,1.000,1.000,1.000,-90.00,180.00,0.00,OPEN,0
672805.689,0,0,0,1.000,1.000,1.000,-90.00,180.00,0.00,OPEN,0
672805.739,0,0,0,1.000,1.000,1.000,-90.00,180.00,0.00,OPEN,0
672805.790,0,0,0,1.000,1.000,1.000,-90.00,180.00,0.00,OPEN,0
672805.839,0,0,0,1.000,1.000,1.000,-90.00,180.00,0.00,OPEN,0
672805.889,0,0,0,1.000,1.000,1.000,-90.00,180.00,0.00,OPEN,0
672805.938,0,0,0,1.000,1.000,1.000,-90.00,180.00,0.00,OPEN,0
672805.988,0,0,0,1.000,1.000,1.000,-90.00,180.00,0.00,OPEN,0
672806.039,0,0,0,1.000,1.000,1.000,-90.00,180.00,0.00,OPEN,0
672806.089,0,0,0,1.000,1.000,1.000,-90.00,180.00,0.00,OPEN,0
672806.139,0,0,0,1.000,1.000,1.000,-90.00,180.00,0.00,OPEN,0
672806.189,0,0,0,1.000,1.000,1.000,-90.00,180.00,0.00,OPEN,0
672806.239,0,0,0,1.000,1.000,1.000,-90.00,180.00,0.00,OPEN,0
672806.289,0,0,0,1.000,1.000,1.000,-90.00,180.00,0.00,OPEN,0
672806.339,0,0,0,1.000,1.000,1.000,-90.00,180.00,0.00,OPEN,0
672806.390,0,0,0,1.000,1.000,1.000,-90.00,180.00,0.00,OPEN,0
672806.439,0,0,0,1.000,1.000,1.000,-90.00,180.00,0.00,OPEN,0
672806.489,0,0,0,1.000,1.000,1.000,-90.00,180.00,0.00,OPEN,0
672806.539,0,0,0,1.000,1.000,1.000,-90.00,180.00,0.00,OPEN,0
672806.590,0,0,0,1.000,1.000,1.000,-90.00,180.00,0.00,OPEN,0
672806.639,0,0,0,1.000,1.000,1.000,-90.00,180.00,0.00,OPEN,0
672806.689,0,0,0,1.000,1.000,1.000,-90.00,180.00,0.00,OPEN,0
672806.738,0,0,0,1.000,1.000,1.000,-90.00,180.00,0.00,OPEN,0
672806.790,0,0,0,1.000,1.000,1.000,-90.00,180.00,0.00,OPEN,0
672806.838,0,0,0,1.000,1.000,1.000,-90.00,180.00,0.00,OPEN,0
672806.889,0,0,0,1.000,1.000,1.000,-90.00,180.00,0.00,OPEN,0
672806.939,0,0,0,1.000,1.000,1.000,-90.00,180.00,0.00,OPEN,0
672806.989,0,0,0,1.000,1.000,1.000,-90.00,180.00,0.00,OPEN,0
672807.039,0,0,0,1.000,1.000,1.000,-90.00,180.00,0.00,OPEN,0
672807.089,0,0,0,1.000,1.000,1.000,-90.00,180.00,0.00,OPEN,0
672807.143,0,0,0,1.000,1.000,1.000,-90.00,180.00,0.00,OPEN,0
672807.189,0,0,0,1.000,1.000,1.000,-90.00,180.00,0.00,OPEN,0
672807.239,0,0,0,1.000,1.000,1.000,-90.00,180.00,0.00,OPEN,0
672807.290,0,0,0,1.000,1.000,1.000,-90.00,180.00,0.00,OPEN,0
672807.339,0,0,0,1.000,1.000,1.000,-90.00,180.00,0.00,OPEN,0
672807.389,0,0,0,1.000,1.000,1.000,-90.00,180.00,0.00,OPEN,0
672807.439,0,0,0,1.000,1.000,1.000,-90.00,180.00,0.00,OPEN,0
672807.489,0,0,0,1.000,1.000,1.000,-90.00,180.00,0.00,OPEN,0
672807.539,0,0,0,1.000,1.000,1.000,-90.00,180.00,0.00,OPEN,0
672807.589,0,0,0,1.000,1.000,1.000,-90.00,180.00,0.00,OPEN,0
672807.639,0,0,0,1.000,1.000,1.000,-90.00,180.00,0.00,OPEN,0
672807.689,0,0,0,1.000,1.000,1.000,-90.00,180.00,0.00,OPEN,0
672807.739,0,0,0,1.000,1.000,1.000,-90.00,180.00,0.00,OPEN,0
672807.789,0,0,0,1.000,1.000,1.000,-90.00,180.00,0.00,OPEN,0
672807.839,0,0,0,1.000,1.000,1.000,-90.00,180.00,0.00,OPEN,0
672807.889,0,0,0,1.000,1.000,1.000,-90.00,180.00,0.00,OPEN,0
672807.939,0,0,0,1.000,1.000,1.000,-90.00,180.00,0.00,OPEN,0
672807.989,0,0,0,1.000,1.000,1.000,-90.00,180.00,0.00,OPEN,0
672808.040,0,0,0,1.000,1.000,1.000,-90.00,180.00,0.00,OPEN,0
672808.089,0,0,0,1.000,1.000,1.000,-90.00,180.00,0.00,OPEN,0
672808.139,0,0,0,1.000,1.000,1.000,-90.00,180.00,0.00,OPEN,0
672808.189,0,0,0,1.000,1.000,1.000,-90.00,180.00,0.00,OPEN,0
672808.239,0,0,0,1.000,1.000,1.000,-90.00,180.00,0.00,OPEN,0
672808.289,0,0,0,1.000,1.000,1.000,-90.00,180.00,0.00,OPEN,0
672808.339,0,0,0,1.000,1.000,1.000,-90.00,180.00,0.00,OPEN,0
672808.400,0,0,0,1.000,1.000,1.000,-90.00,180.00,0.00,OPEN,0
672808.443,0,0,0,1.000,1.000,1.000,-90.00,180.00,0.00,OPEN,0
672808.489,0,0,0,1.000,1.000,1.000,-90.00,180.00,0.00,OPEN,0
672808.539,0,0,0,1.000,1.000,1.000,-90.00,180.00,0.00,OPEN,0
672808.589,0,0,0,1.000,1.000,1.000,-90.00,180.00,0.00,OPEN,0
672808.639,0,0,0,1.000,1.000,1.000,-90.00,180.00,0.00,OPEN,0
672808.689,0,0,0,1.000,1.000,1.000,-90.00,180.00,0.00,OPEN,0
672808.739,0,0,0,1.000,1.000,1.000,-90.00,180.00,0.00,OPEN,0
672808.789,0,0,0,1.000,1.000,1.000,-90.00,180.00,0.00,OPEN,0
672808.839,0,0,0,1.000,1.000,1.000,-90.00,180.00,0.00,OPEN,0
672808.889,0,0,0,1.000,1.000,1.000,-90.00,180.00,0.00,OPEN,0
672808.939,0,0,0,1.000,1.000,1.000,-90.00,180.00,0.00,OPEN,0
672808.988,0,0,0,1.000,1.000,1.000,-90.00,180.00,0.00,OPEN,0
672809.039,0,0,0,1.000,1.000,1.000,-90.00,180.00,0.00,OPEN,0
672809.089,0,0,0,1.000,1.000,1.000,-90.00,180.00,0.00,OPEN,0
672809.139,0,0,0,1.000,1.000,1.000,-90.00,180.00,0.00,OPEN,0
672809.189,0,0,0,1.000,1.000,1.000,-90.00,180.00,0.00,OPEN,0
672809.239,0,0,0,1.000,1.000,1.000,-90.00,180.00,0.00,OPEN,0
672809.289,0,0,0,1.000,1.000,1.000,-90.00,180.00,0.00,OPEN,0
672809.338,0,0,0,1.000,1.000,1.000,-90.00,180.00,0.00,OPEN,0
672809.389,0,0,0,1.000,1.000,1.000,-90.00,180.00,0.00,OPEN,0
672809.439,0,0,0,1.000,1.000,1.000,-90.00,180.00,0.00,OPEN,0
672809.489,0,0,0,1.000,1.000,1.000,-90.00,180.00,0.00,OPEN,0
672809.539,0,0,0,1.000,1.000,1.000,-90.00,180.00,0.00,OPEN,0
672809.589,0,0,0,1.000,1.000,1.000,-90.00,180.00,0.00,OPEN,0
672809.639,0,0,0,1.000,1.000,1.000,-90.00,180.00,0.00,OPEN,0
672809.689,0,0,0,1.000,1.000,1.000,-90.00,180.00,0.00,OPEN,0
672809.739,0,0,0,1.000,1.000,1.000,-90.00,180.00,0.00,OPEN,0
672809.789,0,0,0,1.000,1.000,1.000,-90.00,180.00,0.00,OPEN,0
672809.839,0,0,0,1.000,1.000,1.000,-90.00,180.00,0.00,OPEN,0
672809.889,0,0,0,1.000,1.000,1.000,-90.00,180.00,0.00,OPEN,0
672809.939,0,0,0,1.000,1.000,1.000,-90.00,180.00,0.00,OPEN,0
672809.989,0,0,0,1.000,1.000,1.000,-90.00,180.00,0.00,OPEN,0
672810.039,0,0,0,1.000,1.000,1.000,-90.00,180.00,0.00,OPEN,0
672810.089,0,0,0,1.000,1.000,1.000,-90.00,180.00,0.00,OPEN,0
672810.139,0,0,0,1.000,1.000,1.000,-90.00,180.00,0.00,OPEN,0
672810.189,0,0,0,1.000,1.000,1.000,-90.00,180.00,0.00,OPEN,0
672810.239,0,0,0,1.000,1.000,1.000,-90.00,180.00,0.00,OPEN,0
672810.297,0,0,0,1.000,1.000,1.000,-90.00,180.00,0.00,OPEN,0
672810.340,0,0,0,1.000,1.000,1.000,-90.00,180.00,0.00,OPEN,0
672810.389,0,0,0,1.000,1.000,1.000,-90.00,180.00,0.00,OPEN,0
672810.439,0,0,0,1.000,1.000,1.000,-90.00,180.00,0.00,OPEN,0
672810.489,0,0,0,1.000,1.000,1.000,-90.00,180.00,0.00,OPEN,0
672810.539,0,0,0,1.000,1.000,1.000,-90.00,180.00,0.00,OPEN,0
672810.589,0,0,0,1.000,1.000,1.000,-90.00,180.00,0.00,OPEN,0
672810.639,0,0,0,1.000,1.000,1.000,-90.00,180.00,0.00,OPEN,0
672810.689,0,0,0,1.000,1.000,1.000,-90.00,180.00,0.00,OPEN,0
672810.740,0,0,0,0.998,1.000,1.000,-90.00,180.00,0.00,OPEN,0
672810.789,0,0,0,0.959,1.000,1.000,-90.00,180.00,0.00,OPEN,0
672810.839,0,0,0,0.823,1.000,1.000,-90.00,180.00,0.00,OPEN,0
672810.889,0,0,0,0.739,1.000,1.000,-90.00,180.00,0.00,OPEN,0
672810.940,0,0,0,0.466,1.000,1.000,-90.00,180.00,0.00,OPEN,0
672810.989,0,0,0,0.552,1.000,1.000,-90.00,180.00,0.00,OPEN,0
672811.039,0,0,0,0.704,0.556,1.000,-90.00,180.00,0.00,OPEN,0
672811.089,0,0,0,0.512,1.000,1.000,-90.00,180.00,0.00,OPEN,0
672811.139,0,0,0,0.946,1.000,1.000,-90.00,180.00,0.00,OPEN,0
672811.189,0,0,0,0.999,1.000,1.000,-90.00,180.00,0.00,OPEN,0
672811.239,0,0,0,1.000,1.000,1.000,-90.00,180.00,0.00,OPEN,0
672811.289,0,0,0,1.000,1.000,1.000,-90.00,180.00,0.00,OPEN,0
672811.339,0,0,0,1.000,1.000,1.000,-90.00,180.00,0.00,OPEN,0
672811.389,3,0,0,1.000,1.000,1.000,-90.00,180.00,0.00,OPEN,0
672811.439,3,0,0,1.000,1.000,1.000,-90.00,180.00,0.00,OPEN,0
672811.489,3,0,0,1.000,1.000,1.000,-90.00,180.00,0.00,OPEN,0
672811.539,3,0,0,1.000,1.000,0.999,-90.00,180.00,0.00,OPEN,0
672811.603,3,0,0,1.000,1.000,0.998,-90.00,180.00,0.00,OPEN,0
672811.640,3,0,0,1.000,1.000,0.997,-90.00,180.00,0.00,OPEN,0
672811.689,3,0,0,1.000,1.000,0.991,-90.00,180.00,0.00,OPEN,0
672811.741,3,0,0,1.000,1.000,0.985,-90.00,180.00,0.00,OPEN,0
672811.789,3,0,0,1.000,1.000,0.970,-90.00,180.00,0.00,OPEN,0
672811.839,3,0,0,1.000,1.000,0.909,-90.00,180.00,0.00,OPEN,0
672811.889,3,0,0,1.000,1.000,0.574,-90.00,180.00,0.00,OPEN,0
672811.939,3,1,0,1.000,1.000,0.932,-90.00,180.00,0.00,OPEN,0
672811.990,3,1,0,1.000,1.000,0.996,-90.00,180.00,0.00,OPEN,0
672812.039,3,1,0,1.000,1.000,1.000,-90.00,180.00,0.00,OPEN,0
672812.089,3,1,0,1.000,1.000,1.000,-90.00,180.00,0.00,OPEN,0
672812.139,3,1,0,1.000,1.000,1.000,-90.00,180.00,0.00,OPEN,0
672812.188,3,1,0,1.000,1.000,1.000,-90.00,180.00,0.00,OPEN,0
672812.239,3,1,0,1.000,1.000,1.000,-90.00,180.00,0.00,OPEN,0
672812.288,3,1,0,1.000,1.000,1.000,-90.00,180.00,0.00,OPEN,0
672812.341,3,1,0,1.000,1.000,1.000,-90.00,180.00,0.00,OPEN,0
672812.389,3,1,0,1.000,1.000,1.000,-90.00,180.00,0.00,OPEN,0
672812.439,3,1,0,1.000,1.000,1.000,-90.00,180.00,0.00,OPEN,0
672812.489,3,1,0,1.000,1.000,1.000,-90.00,180.00,0.00,OPEN,0
672812.539,3,1,0,1.000,0.998,1.000,-90.00,180.00,0.00,OPEN,0
672812.589,3,1,0,1.000,1.000,1.000,-90.00,180.00,0.00,OPEN,0
672812.639,3,1,0,1.000,1.000,1.000,-90.00,180.00,0.00,OPEN,0
672812.689,3,1,0,1.000,1.000,1.000,-90.00,180.00,0.00,OPEN,0
672812.739,3,1,0,1.000,1.000,1.000,-90.00,180.00,0.00,OPEN,0
672812.789,3,1,1,1.000,1.000,1.000,-90.00,180.00,0.00,OPEN,0
672812.839,3,1,1,1.000,1.000,1.000,-90.00,180.00,0.00,OPEN,0
672812.888,3,1,1,1.000,1.000,1.000,-90.00,180.00,0.00,OPEN,0
672812.940,3,1,1,1.000,1.000,1.000,-90.00,180.00,0.00,OPEN,0
672812.989,3,1,1,1.000,1.000,1.000,-90.00,180.00,0.00,OPEN,0
672813.039,3,1,1,1.000,1.000,1.000,-90.00,180.00,0.00,OPEN,0
672813.089,3,1,1,1.000,1.000,1.000,-90.00,180.00,0.00,OPEN,0
672813.139,3,1,1,1.000,1.000,1.000,-90.00,180.00,0.00,OPEN,0
672813.190,3,1,1,1.000,1.000,1.000,-90.00,180.00,0.00,OPEN,0
672813.239,3,1,1,1.000,1.000,1.000,-90.00,180.00,0.00,OPEN,0
672813.289,3,1,1,1.000,1.000,1.000,-90.00,180.00,0.00,OPEN,0
