t,hand,elbow,shoulder,p_hand,p_elbow,p_shoulder,J2,J3,J6,grip_state,cmd_sent
655343.415,0,0,0,0.981,1.000,0.999,-90.00,180.00,0.00,OPEN,0
655343.431,0,0,0,0.997,1.000,0.999,-90.00,180.00,0.00,OPEN,0
655343.435,0,0,0,1.000,1.000,0.998,-90.00,180.00,0.00,OPEN,0
655343.440,0,0,0,1.000,1.000,0.999,-90.00,180.00,0.00,OPEN,0
655343.444,0,0,0,1.000,1.000,0.999,-90.00,180.00,0.00,OPEN,0
655343.448,0,0,0,1.000,1.000,0.999,-90.00,180.00,0.00,OPEN,0
655343.452,0,0,0,1.000,1.000,0.999,-90.00,180.00,0.00,OPEN,0
655343.456,0,0,0,1.000,1.000,0.999,-90.00,180.00,0.00,OPEN,0
655343.460,0,0,0,1.000,1.000,0.999,-90.00,180.00,0.00,OPEN,0
655343.464,0,0,0,1.000,1.000,0.999,-90.00,180.00,0.00,OPEN,0
655343.468,0,0,0,1.000,1.000,0.999,-90.00,180.00,0.00,OPEN,0
655343.472,0,0,0,1.000,1.000,0.998,-90.00,180.00,0.00,OPEN,0
655343.477,0,0,0,1.000,1.000,0.998,-90.00,180.00,0.00,OPEN,0
655343.481,0,0,0,1.000,1.000,0.998,-90.00,180.00,0.00,OPEN,0
655343.486,0,0,0,1.000,1.000,0.996,-90.00,180.00,0.00,OPEN,0
655343.490,0,0,0,1.000,1.000,0.995,-90.00,180.00,0.00,OPEN,0
655343.494,0,0,0,1.000,1.000,0.997,-90.00,180.00,0.00,OPEN,0
655343.499,0,0,0,1.000,1.000,0.996,-90.00,180.00,0.00,OPEN,0
655343.504,0,0,0,1.000,1.000,0.997,-90.00,180.00,0.00,OPEN,0
655343.508,0,0,0,1.000,1.000,0.997,-90.00,180.00,0.00,OPEN,0
655343.512,0,0,0,1.000,1.000,0.992,-90.00,180.00,0.00,OPEN,0
655343.517,0,0,0,1.000,1.000,0.988,-90.00,180.00,0.00,OPEN,0
655343.521,0,0,0,1.000,1.000,0.972,-90.00,180.00,0.00,OPEN,0
655343.526,0,0,0,1.000,1.000,0.994,-90.00,180.00,0.00,OPEN,0
655343.530,0,0,0,1.000,1.000,0.996,-90.00,180.00,0.00,OPEN,0
655343.534,0,0,0,1.000,1.000,0.993,-90.00,180.00,0.00,OPEN,0
655343.539,0,0,0,1.000,1.000,0.994,-90.00,180.00,0.00,OPEN,0
655343.544,0,0,0,1.000,1.000,0.993,-90.00,180.00,0.00,OPEN,0
655343.548,0,0,0,1.000,1.000,0.994,-90.00,180.00,0.00,OPEN,0
655343.552,0,0,0,1.000,1.000,0.985,-90.00,180.00,0.00,OPEN,0
655343.556,0,0,0,1.000,1.000,0.889,-90.00,180.00,0.00,OPEN,0
655343.560,0,0,0,1.000,1.000,0.814,-90.00,180.00,0.00,OPEN,0
655343.564,0,0,0,1.000,1.000,0.943,-90.00,180.00,0.00,OPEN,0
655343.568,0,0,0,1.000,1.000,0.984,-90.00,180.00,0.00,OPEN,0
655343.573,0,0,0,1.000,1.000,0.991,-90.00,180.00,0.00,OPEN,0
655343.577,0,0,0,1.000,1.000,0.992,-90.00,180.00,0.00,OPEN,0
655343.581,0,0,0,1.000,1.000,0.995,-90.00,180.00,0.00,OPEN,0
655343.586,0,0,0,1.000,1.000,0.996,-90.00,180.00,0.00,OPEN,0
655343.590,0,0,0,1.000,1.000,0.998,-90.00,180.00,0.00,OPEN,0
655343.595,0,0,0,1.000,1.000,0.998,-90.00,180.00,0.00,OPEN,0
655343.599,0,0,0,1.000,1.000,0.997,-90.00,180.00,0.00,OPEN,0
655343.603,0,0,0,1.000,1.000,0.994,-90.00,180.00,0.00,OPEN,0
655343.607,0,0,0,1.000,1.000,0.994,-90.00,180.00,0.00,OPEN,0
655343.611,0,0,0,1.000,1.000,0.993,-90.00,180.00,0.00,OPEN,0
655343.616,0,0,0,1.000,1.000,0.989,-90.00,180.00,0.00,OPEN,0
655343.621,0,0,0,1.000,1.000,0.981,-90.00,180.00,0.00,OPEN,0
655343.625,0,0,0,1.000,1.000,0.978,-90.00,180.00,0.00,OPEN,0
655343.629,0,0,0,1.000,1.000,0.983,-90.00,180.00,0.00,OPEN,0
655343.634,0,0,0,1.000,1.000,0.993,-90.00,180.00,0.00,OPEN,0
655343.637,0,0,0,1.000,1.000,0.992,-90.00,180.00,0.00,OPEN,0
655343.642,0,0,0,1.000,1.000,0.992,-90.00,180.00,0.00,OPEN,0
655343.646,0,0,0,1.000,1.000,0.989,-90.00,180.00,0.00,OPEN,0
655343.650,0,0,0,1.000,1.000,0.988,-90.00,180.00,0.00,OPEN,0
655343.653,0,0,0,1.000,1.000,0.957,-90.00,180.00,0.00,OPEN,0
655343.657,0,0,0,1.000,1.000,0.920,-90.00,180.00,0.00,OPEN,0
655343.661,0,0,0,1.000,1.000,0.942,-90.00,180.00,0.00,OPEN,0
655343.665,0,0,0,1.000,1.000,0.936,-90.00,180.00,0.00,OPEN,0
655343.669,0,0,0,1.000,1.000,0.935,-90.00,180.00,0.00,OPEN,0
655343.673,0,0,0,1.000,1.000,0.911,-90.00,180.00,0.00,OPEN,0
655343.677,0,0,0,1.000,1.000,0.908,-90.00,180.00,0.00,OPEN,0
655343.681,0,0,0,1.000,1.000,0.968,-90.00,180.00,0.00,OPEN,0
655343.685,0,0,0,1.000,1.000,0.969,-90.00,180.00,0.00,OPEN,0
655343.689,0,0,0,1.000,1.000,0.981,-90.00,180.00,0.00,OPEN,0
655343.693,0,0,0,1.000,1.000,0.995,-90.00,180.00,0.00,OPEN,0
655343.696,0,0,0,1.000,1.000,0.996,-90.00,180.00,0.00,OPEN,0
655343.700,0,0,0,1.000,1.000,0.996,-90.00,180.00,0.00,OPEN,0
655343.704,0,0,0,1.000,1.000,0.994,-90.00,180.00,0.00,OPEN,0
655343.708,0,0,0,1.000,1.000,0.990,-90.00,180.00,0.00,OPEN,0
655343.711,0,0,0,1.000,1.000,0.986,-90.00,180.00,0.00,OPEN,0
655343.715,0,0,0,1.000,1.000,0.987,-90.00,180.00,0.00,OPEN,0
655343.719,0,0,0,1.000,1.000,0.982,-90.00,180.00,0.00,OPEN,0
655343.724,0,0,0,1.000,1.000,0.978,-90.00,180.00,0.00,OPEN,0
655343.729,0,0,0,1.000,1.000,0.983,-90.00,180.00,0.00,OPEN,0
655343.734,0,0,0,1.000,1.000,0.988,-90.00,180.00,0.00,OPEN,0
655343.737,0,0,0,1.000,1.000,0.994,-90.00,180.00,0.00,OPEN,0
655343.742,0,0,0,1.000,1.000,0.994,-90.00,180.00,0.00,OPEN,0
655343.746,0,0,0,1.000,1.000,0.990,-90.00,180.00,0.00,OPEN,0
655343.750,0,0,0,1.000,1.000,0.991,-90.00,180.00,0.00,OPEN,0
655343.753,0,0,0,1.000,1.000,0.989,-90.00,180.00,0.00,OPEN,0
655343.758,0,0,0,1.000,1.000,0.986,-90.00,180.00,0.00,OPEN,0
655343.762,0,0,0,1.000,1.000,0.985,-90.00,180.00,0.00,OPEN,0
655343.766,0,0,0,1.000,1.000,0.981,-90.00,180.00,0.00,OPEN,0
655343.770,0,0,0,1.000,1.000,0.979,-90.00,180.00,0.00,OPEN,0
655343.774,0,0,0,1.000,1.000,0.988,-90.00,180.00,0.00,OPEN,0
655343.778,0,0,0,1.000,1.000,0.987,-90.00,180.00,0.00,OPEN,0
655343.782,0,0,0,1.000,1.000,0.987,-90.00,180.00,0.00,OPEN,0
655343.786,0,0,0,1.000,1.000,0.987,-90.00,180.00,0.00,OPEN,0
655343.790,0,0,0,1.000,1.000,0.990,-90.00,180.00,0.00,OPEN,0
655343.794,0,0,0,1.000,1.000,0.994,-90.00,180.00,0.00,OPEN,0
655343.799,0,0,0,1.000,1.000,0.989,-90.00,180.00,0.00,OPEN,0
655343.806,0,0,0,1.000,1.000,0.987,-90.00,180.00,0.00,OPEN,0
655343.813,0,0,0,1.000,1.000,0.987,-90.00,180.00,0.00,OPEN,0
655343.820,0,0,0,1.000,1.000,0.990,-90.00,180.00,0.00,OPEN,0
655343.826,0,0,0,1.000,1.000,0.981,-90.00,180.00,0.00,OPEN,0
655343.832,0,0,0,1.000,1.000,0.979,-90.00,180.00,0.00,OPEN,0
655343.837,0,0,0,1.000,1.000,0.985,-90.00,180.00,0.00,OPEN,0
655343.842,0,0,0,1.000,1.000,1.000,-90.00,180.00,0.00,OPEN,0
655343.846,0,0,0,1.000,1.000,1.000,-90.00,180.00,0.00,OPEN,0
655343.850,0,0,0,1.000,1.000,1.000,-90.00,180.00,0.00,OPEN,0
655343.855,0,0,0,1.000,1.000,1.000,-90.00,180.00,0.00,OPEN,0
655343.860,0,0,0,1.000,1.000,1.000,-90.00,180.00,0.00,OPEN,0
655343.864,0,0,0,1.000,1.000,1.000,-90.00,180.00,0.00,OPEN,0
655343.868,0,0,0,1.000,1.000,1.000,-90.00,180.00,0.00,OPEN,0
655343.872,0,0,0,1.000,1.000,1.000,-90.00,180.00,0.00,OPEN,0
655343.876,0,0,0,1.000,1.000,1.000,-90.00,180.00,0.00,OPEN,0
655343.879,0,0,0,1.000,1.000,1.000,-90.00,180.00,0.00,OPEN,0
655343.883,0,1,1,1.000,1.000,1.000,0.00,90.00,0.00,OPEN,1
655343.888,0,1,1,1.000,1.000,1.000,0.00,90.00,0.00,OPEN,0
655343.892,0,1,1,1.000,1.000,1.000,0.00,90.00,0.00,OPEN,0
655343.895,0,1,1,1.000,1.000,1.000,0.00,90.00,0.00,OPEN,0
655343.899,0,1,1,1.000,1.000,1.000,0.00,90.00,0.00,OPEN,0
655343.903,0,1,1,1.000,1.000,1.000,0.00,90.00,0.00,OPEN,0
655343.906,0,1,1,1.000,1.000,1.000,0.00,90.00,0.00,OPEN,0
655343.910,0,1,1,1.000,1.000,1.000,0.00,90.00,0.00,OPEN,0
655343.914,0,1,1,1.000,1.000,0.924,0.00,90.00,0.00,OPEN,0
655343.918,0,1,1,1.000,1.000,0.700,0.00,90.00,0.00,OPEN,0
655343.921,0,1,1,1.000,1.000,0.790,0.00,90.00,0.00,OPEN,0
655343.925,0,1,1,1.000,1.000,1.000,0.00,90.00,0.00,OPEN,0
655343.929,0,1,1,1.000,1.000,1.000,0.00,90.00,0.00,OPEN,0
655343.933,0,1,1,1.000,1.000,1.000,0.00,90.00,0.00,OPEN,0
655343.938,0,1,1,0.773,1.000,1.000,0.00,90.00,0.00,OPEN,0
655343.944,0,1,1,1.000,1.000,1.000,0.00,90.00,0.00,OPEN,0
655343.948,0,1,1,1.000,1.000,1.000,0.00,90.00,0.00,OPEN,0
655343.952,0,1,1,1.000,1.000,1.000,0.00,90.00,0.00,OPEN,0
655343.956,0,1,1,1.000,1.000,1.000,0.00,90.00,0.00,OPEN,0
655343.960,0,0,1,1.000,1.000,1.000,0.00,180.00,0.00,OPEN,0
655343.964,0,0,1,1.000,1.000,1.000,0.00,180.00,0.00,OPEN,0
655343.968,0,0,0,1.000,0.522,0.982,-90.00,180.00,0.00,OPEN,0
655343.972,0,0,0,1.000,0.998,0.732,-90.00,180.00,0.00,OPEN,0
655343.976,0,0,0,1.000,1.000,0.598,-90.00,180.00,0.00,OPEN,0
655343.980,0,0,0,1.000,1.000,0.546,-90.00,180.00,0.00,OPEN,0
655343.984,0,0,0,1.000,1.000,0.600,-90.00,180.00,0.00,OPEN,1
655343.989,0,0,0,1.000,1.000,0.996,-90.00,180.00,0.00,OPEN,0
655343.995,0,0,0,1.000,1.000,0.976,-90.00,180.00,0.00,OPEN,0
655344.001,0,0,0,1.000,1.000,0.959,-90.00,180.00,0.00,OPEN,0
655344.006,0,0,0,1.000,1.000,0.984,-90.00,180.00,0.00,OPEN,0
655344.013,0,0,0,1.000,0.992,0.988,-90.00,180.00,0.00,OPEN,0
655344.018,0,0,0,1.000,0.973,0.978,-90.00,180.00,0.00,OPEN,0
655344.023,0,0,0,1.000,0.743,0.999,-90.00,180.00,0.00,OPEN,0
655344.029,0,0,0,1.000,1.000,1.000,-90.00,180.00,0.00,OPEN,0
655344.033,0,0,0,1.000,1.000,0.995,-90.00,180.00,0.00,OPEN,0
655344.037,0,0,0,1.000,0.810,0.803,-90.00,180.00,0.00,OPEN,0
655344.042,0,0,0,1.000,0.977,0.574,-90.00,180.00,0.00,OPEN,0
655344.048,0,0,0,1.000,0.949,0.637,-90.00,180.00,0.00,OPEN,0
655344.053,0,0,0,1.000,0.778,0.794,-90.00,180.00,0.00,OPEN,0
655344.058,0,0,0,1.000,0.995,0.992,-90.00,180.00,0.00,OPEN,0
655344.063,0,0,0,1.000,1.000,1.000,-90.00,180.00,0.00,OPEN,0
655344.067,0,0,0,1.000,1.000,1.000,-90.00,180.00,0.00,OPEN,0
655344.071,0,0,0,1.000,1.000,1.000,-90.00,180.00,0.00,OPEN,0
655344.076,0,0,0,1.000,1.000,1.000,-90.00,180.00,0.00,OPEN,0
655344.081,0,0,0,1.000,1.000,1.000,-90.00,180.00,0.00,OPEN,0
655344.086,0,0,0,1.000,1.000,1.000,-90.00,180.00,0.00,OPEN,0
655344.092,0,0,0,1.000,1.000,1.000,-90.00,180.00,0.00,OPEN,0
655344.097,0,0,0,1.000,1.000,0.956,-90.00,180.00,0.00,OPEN,0
655344.102,0,0,0,1.000,1.000,0.562,-90.00,180.00,0.00,OPEN,0
655344.107,0,0,0,1.000,1.000,1.000,-90.00,180.00,0.00,OPEN,0
655344.111,0,0,0,1.000,1.000,1.000,-90.00,180.00,0.00,OPEN,0
655344.115,0,0,0,1.000,1.000,1.000,-90.00,180.00,0.00,OPEN,0
655344.119,0,0,0,1.000,1.000,1.000,-90.00,180.00,0.00,OPEN,0
655344.123,0,0,0,1.000,1.000,1.000,-90.00,180.00,0.00,OPEN,0
655344.127,0,0,0,1.000,1.000,1.000,-90.00,180.00,0.00,OPEN,0
655344.131,0,0,0,1.000,1.000,1.000,-90.00,180.00,0.00,OPEN,0
655344.136,0,0,0,1.000,1.000,1.000,-90.00,180.00,0.00,OPEN,0
655344.140,0,0,0,1.000,1.000,1.000,-90.00,180.00,0.00,OPEN,0
655344.144,0,0,0,1.000,1.000,1.000,-90.00,180.00,0.00,OPEN,0
655344.149,0,0,0,1.000,1.000,1.000,-90.00,180.00,0.00,OPEN,0
655344.154,0,0,0,1.000,1.000,1.000,-90.00,180.00,0.00,OPEN,0
655344.159,0,0,0,1.000,1.000,1.000,-90.00,180.00,0.00,OPEN,0
655344.165,0,0,0,1.000,1.000,1.000,-90.00,180.00,0.00,OPEN,0
655344.169,0,0,0,1.000,1.000,1.000,-90.00,180.00,0.00,OPEN,0
655344.174,0,0,0,1.000,1.000,1.000,-90.00,180.00,0.00,OPEN,0
655344.179,0,0,0,1.000,1.000,1.000,-90.00,180.00,0.00,OPEN,0
655344.183,0,0,0,1.000,0.999,1.000,-90.00,180.00,0.00,OPEN,0
655344.187,0,0,0,1.000,0.847,0.986,-90.00,180.00,0.00,OPEN,0
655344.191,0,0,0,1.000,1.000,0.759,-90.00,180.00,0.00,OPEN,0
655344.196,0,0,0,1.000,1.000,0.965,-90.00,180.00,0.00,OPEN,0
655344.199,0,0,0,1.000,1.000,0.994,-90.00,180.00,0.00,OPEN,0
655344.203,0,0,0,1.000,1.000,0.994,-90.00,180.00,0.00,OPEN,0
655344.207,0,0,0,1.000,1.000,0.993,-90.00,180.00,0.00,OPEN,0
655344.212,0,0,0,1.000,1.000,0.991,-90.00,180.00,0.00,OPEN,0
655344.218,0,0,0,1.000,1.000,0.987,-90.00,180.00,0.00,OPEN,0
655344.224,0,0,0,1.000,1.000,0.991,-90.00,180.00,0.00,OPEN,0
655344.229,0,0,0,1.000,1.000,0.995,-90.00,180.00,0.00,OPEN,0
655344.234,0,0,0,1.000,1.000,0.993,-90.00,180.00,0.00,OPEN,0
655344.240,0,0,0,1.000,1.000,0.985,-90.00,180.00,0.00,OPEN,0
655344.245,0,0,0,1.000,1.000,0.981,-90.00,180.00,0.00,OPEN,0
655344.250,0,0,0,1.000,1.000,0.991,-90.00,180.00,0.00,OPEN,0
655344.254,0,0,0,1.000,1.000,0.989,-90.00,180.00,0.00,OPEN,0
655344.259,0,0,0,1.000,1.000,0.980,-90.00,180.00,0.00,OPEN,0
655344.263,0,0,0,1.000,1.000,0.959,-90.00,180.00,0.00,OPEN,0
655344.267,0,0,0,1.000,1.000,0.587,-90.00,180.00,0.00,OPEN,0
655344.271,0,0,0,1.000,1.000,0.505,-90.00,180.00,0.00,OPEN,0
655344.275,0,0,0,1.000,1.000,0.514,-90.00,180.00,0.00,OPEN,0
655344.279,0,0,0,1.000,1.000,0.504,-90.00,180.00,0.00,OPEN,0
655344.283,0,0,0,1.000,1.000,0.527,-90.00,180.00,0.00,OPEN,0
655344.288,0,0,0,1.000,1.000,0.761,-90.00,180.00,0.00,OPEN,0
655344.293,0,0,0,1.000,1.000,0.892,-90.00,180.00,0.00,OPEN,0
655344.298,0,0,0,1.000,1.000,0.929,-90.00,180.00,0.00,OPEN,0
655344.303,0,0,0,1.000,1.000,0.940,-90.00,180.00,0.00,OPEN,0
655344.307,0,0,0,1.000,1.000,0.913,-90.00,180.00,0.00,OPEN,0
655344.312,0,0,0,1.000,1.000,0.912,-90.00,180.00,0.00,OPEN,0
655344.316,0,0,0,1.000,1.000,0.848,-90.00,180.00,0.00,OPEN,0
655344.320,0,0,0,1.000,1.000,0.874,-90.00,180.00,0.00,OPEN,0
655344.325,0,0,0,1.000,1.000,0.876,-90.00,180.00,0.00,OPEN,0
655344.330,0,0,0,1.000,1.000,0.909,-90.00,180.00,0.00,OPEN,0
655344.334,0,0,0,1.000,1.000,0.925,-90.00,180.00,0.00,OPEN,0
655344.338,0,0,0,1.000,1.000,0.970,-90.00,180.00,0.00,OPEN,0
655344.342,0,0,0,1.000,1.000,0.980,-90.00,180.00,0.00,OPEN,0
655344.347,0,0,0,1.000,1.000,0.982,-90.00,180.00,0.00,OPEN,0
655344.352,0,0,0,1.000,1.000,0.990,-90.00,180.00,0.00,OPEN,0
655344.358,0,0,0,1.000,1.000,0.993,-90.00,180.00,0.00,OPEN,0
655344.363,0,0,0,1.000,1.000,0.991,-90.00,180.00,0.00,OPEN,0
655344.368,0,0,1,1.000,1.000,0.993,0.00,180.00,0.00,OPEN,1
655344.373,0,0,1,1.000,1.000,0.995,0.00,180.00,0.00,OPEN,0
655344.379,0,0,1,1.000,1.000,0.995,0.00,180.00,0.00,OPEN,0
655344.384,0,0,1,1.000,1.000,0.996,0.00,180.00,0.00,OPEN,0
655344.388,0,0,1,1.000,1.000,0.997,0.00,180.00,0.00,OPEN,0
655344.392,0,0,1,1.000,1.000,0.988,0.00,180.00,0.00,OPEN,0
655344.395,0,0,1,1.000,1.000,0.949,0.00,180.00,0.00,OPEN,0
655344.399,0,0,1,1.000,1.000,0.769,0.00,180.00,0.00,OPEN,0
655344.403,0,0,1,1.000,1.000,0.682,0.00,180.00,0.00,OPEN,0
655344.406,0,0,1,1.000,1.000,0.598,0.00,180.00,0.00,OPEN,0
655344.410,0,0,1,1.000,1.000,0.619,0.00,180.00,0.00,OPEN,0
655344.413,0,0,1,1.000,1.000,0.518,0.00,180.00,0.00,OPEN,0
655344.417,0,0,1,1.000,1.000,0.527,0.00,180.00,0.00,OPEN,0
655344.422,0,0,1,1.000,1.000,0.560,0.00,180.00,0.00,OPEN,0
655344.425,0,0,1,1.000,1.000,0.534,0.00,180.00,0.00,OPEN,0
655344.429,0,0,1,1.000,1.000,0.687,0.00,180.00,0.00,OPEN,0
655344.433,0,0,1,1.000,1.000,0.702,0.00,180.00,0.00,OPEN,0
655344.437,0,0,1,1.000,1.000,0.818,0.00,180.00,0.00,OPEN,0
655344.441,0,0,1,1.000,1.000,0.739,0.00,180.00,0.00,OPEN,0
655344.445,0,0,1,1.000,1.000,0.771,0.00,180.00,0.00,OPEN,0
655344.448,0,0,1,1.000,1.000,0.750,0.00,180.00,0.00,OPEN,0
655344.452,0,0,1,1.000,1.000,0.721,0.00,180.00,0.00,OPEN,0
655344.456,0,0,1,1.000,1.000,0.617,0.00,180.00,0.00,OPEN,0
655344.460,0,0,1,1.000,1.000,0.580,0.00,180.00,0.00,OPEN,0
655344.464,0,0,1,1.000,1.000,0.666,0.00,180.00,0.00,OPEN,0
655344.469,0,0,1,1.000,1.000,0.615,0.00,180.00,0.00,OPEN,0
655344.474,0,0,1,1.000,1.000,0.527,0.00,180.00,0.00,OPEN,0
655344.480,0,0,1,1.000,1.000,0.607,0.00,180.00,0.00,OPEN,0
655344.484,0,0,1,1.000,1.000,0.608,0.00,180.00,0.00,OPEN,0
655344.488,0,0,1,1.000,1.000,0.708,0.00,180.00,0.00,OPEN,0
655344.493,0,0,1,1.000,1.000,0.855,0.00,180.00,0.00,OPEN,0
655344.497,0,0,1,1.000,1.000,0.816,0.00,180.00,0.00,OPEN,0
655344.501,0,0,1,1.000,1.000,0.858,0.00,180.00,0.00,OPEN,0
655344.505,0,0,1,1.000,1.000,0.850,0.00,180.00,0.00,OPEN,0
655344.508,0,0,1,1.000,1.000,0.653,0.00,180.00,0.00,OPEN,0
655344.513,0,0,1,1.000,1.000,0.612,0.00,180.00,0.00,OPEN,0
655344.517,0,0,1,1.000,1.000,0.638,0.00,180.00,0.00,OPEN,0
655344.522,0,0,1,1.000,1.000,0.707,0.00,180.00,0.00,OPEN,0
655344.526,0,0,1,1.000,1.000,0.766,0.00,180.00,0.00,OPEN,0
655344.530,0,0,1,1.000,1.000,0.682,0.00,180.00,0.00,OPEN,0
655344.534,0,0,1,1.000,1.000,0.505,0.00,180.00,0.00,OPEN,0
655344.538,0,0,1,1.000,1.000,0.640,0.00,180.00,0.00,OPEN,0
655344.542,0,0,1,1.000,1.000,0.733,0.00,180.00,0.00,OPEN,0
655344.546,0,0,1,1.000,1.000,1.000,0.00,180.00,0.00,OPEN,0
655344.550,0,0,1,1.000,1.000,1.000,0.00,180.00,0.00,OPEN,0
655344.556,0,0,1,1.000,1.000,1.000,0.00,180.00,0.00,OPEN,0
655344.561,0,0,1,1.000,1.000,1.000,0.00,180.00,0.00,OPEN,0
655344.565,0,0,1,1.000,1.000,1.000,0.00,180.00,0.00,OPEN,0
655344.570,0,0,1,1.000,1.000,1.000,0.00,180.00,0.00,OPEN,0
655344.576,0,0,1,1.000,1.000,1.000,0.00,180.00,0.00,OPEN,0
655344.580,0,0,1,1.000,1.000,1.000,0.00,180.00,0.00,OPEN,0
655344.585,0,0,0,1.000,1.000,1.000,-90.00,180.00,0.00,OPEN,1
655344.590,0,0,0,1.000,1.000,1.000,-90.00,180.00,0.00,OPEN,0
655344.595,0,0,0,0.984,1.000,1.000,-90.00,180.00,0.00,OPEN,0
655344.600,0,0,0,0.985,1.000,1.000,-90.00,180.00,0.00,OPEN,0
655344.605,0,0,0,0.968,1.000,1.000,-90.00,180.00,0.00,OPEN,0
655344.609,0,0,0,0.966,1.000,1.000,-90.00,180.00,0.00,OPEN,0
655344.614,0,0,0,0.962,1.000,1.000,-90.00,180.00,0.00,OPEN,0
655344.619,0,0,0,0.957,1.000,1.000,-90.00,180.00,0.00,OPEN,0
655344.623,0,0,0,0.937,1.000,1.000,-90.00,180.00,0.00,OPEN,0
655344.627,0,0,0,0.984,1.000,1.000,-90.00,180.00,0.00,OPEN,0
655344.631,0,0,0,0.999,1.000,1.000,-90.00,180.00,0.00,OPEN,0
655344.634,0,0,0,1.000,1.000,1.000,-90.00,180.00,0.00,OPEN,0
655344.638,0,1,0,1.000,0.985,0.999,-90.00,90.00,0.00,OPEN,0
655399.937,0,1,0,1.000,1.000,1.000,-90.00,90.00,0.00,OPEN,1
655399.941,0,1,0,1.000,1.000,1.000,-90.00,90.00,0.00,OPEN,0
655399.946,0,1,0,1.000,0.997,1.000,-90.00,90.00,0.00,OPEN,0
655399.950,0,1,0,1.000,1.000,1.000,-90.00,90.00,0.00,OPEN,0
655399.954,0,1,0,1.000,1.000,1.000,-90.00,90.00,0.00,OPEN,0
655399.958,0,1,1,1.000,1.000,1.000,0.00,90.00,0.00,OPEN,0
655399.963,2,1,1,1.000,1.000,1.000,0.00,90.00,-4.50,OPEN,0
655399.967,2,1,1,1.000,0.996,0.988,0.00,90.00,-4.50,OPEN,0
655399.972,2,1,1,1.000,0.999,0.980,0.00,90.00,-4.50,OPEN,0
655399.975,2,1,1,1.000,0.999,0.977,0.00,90.00,-4.50,OPEN,0
655399.979,2,1,1,1.000,0.998,0.962,0.00,90.00,-4.50,OPEN,0
655399.982,2,1,1,1.000,0.958,0.800,0.00,90.00,-4.50,OPEN,0
655399.986,2,1,1,1.000,1.000,0.998,0.00,90.00,-4.50,OPEN,0
655399.990,2,1,1,1.000,1.000,1.000,0.00,90.00,-4.50,OPEN,0
655399.993,2,1,1,1.000,1.000,1.000,0.00,90.00,-4.50,OPEN,0
655399.997,2,1,1,1.000,1.000,1.000,0.00,90.00,-4.50,OPEN,0
655400.001,2,1,1,1.000,1.000,1.000,0.00,90.00,-4.50,OPEN,0
655400.005,2,1,1,1.000,1.000,1.000,0.00,90.00,-4.50,OPEN,0
655400.009,2,1,1,1.000,1.000,1.000,0.00,90.00,-4.50,OPEN,0
655400.013,2,1,1,1.000,1.000,1.000,0.00,90.00,-4.50,OPEN,0
655400.016,2,1,1,1.000,1.000,1.000,0.00,90.00,-4.50,OPEN,0
655400.020,2,1,1,1.000,1.000,1.000,0.00,90.00,-4.50,OPEN,0
655400.024,2,0,0,1.000,1.000,1.000,-90.00,180.00,-4.50,OPEN,0
655400.028,2,0,0,1.000,1.000,1.000,-90.00,180.00,-4.50,OPEN,0
655400.033,2,0,0,1.000,1.000,1.000,-90.00,180.00,-4.50,OPEN,0
655400.037,2,0,0,1.000,1.000,1.000,-90.00,180.00,-4.50,OPEN,1
655400.042,2,0,0,1.000,1.000,1.000,-90.00,180.00,-4.50,OPEN,0
655400.047,2,0,0,1.000,1.000,1.000,-90.00,180.00,-4.50,OPEN,0
655400.051,2,0,0,1.000,1.000,1.000,-90.00,180.00,-4.50,OPEN,0
655400.055,2,0,0,1.000,1.000,1.000,-90.00,180.00,-4.50,OPEN,0
655400.060,2,0,0,1.000,1.000,1.000,-90.00,180.00,-4.50,OPEN,0
655400.064,2,0,0,1.000,1.000,1.000,-90.00,180.00,-9.00,OPEN,0
655400.068,2,0,0,1.000,1.000,1.000,-90.00,180.00,-9.00,OPEN,0
655400.072,2,0,0,1.000,1.000,1.000,-90.00,180.00,-9.00,OPEN,0
655400.076,2,0,0,1.000,1.000,1.000,-90.00,180.00,-9.00,OPEN,0
655400.079,2,0,0,1.000,1.000,1.000,-90.00,180.00,-9.00,OPEN,0
655400.083,2,0,0,1.000,1.000,1.000,-90.00,180.00,-9.00,OPEN,0
655400.086,2,0,0,1.000,1.000,1.000,-90.00,180.00,-9.00,OPEN,0
655400.090,2,0,0,1.000,1.000,1.000,-90.00,180.00,-9.00,OPEN,0
655400.094,2,0,0,1.000,1.000,1.000,-90.00,180.00,-9.00,OPEN,0
655400.097,2,0,0,1.000,1.000,1.000,-90.00,180.00,-9.00,OPEN,0
655400.101,2,0,0,1.000,1.000,1.000,-90.00,180.00,-9.00,OPEN,0
655400.105,2,0,0,1.000,1.000,1.000,-90.00,180.00,-9.00,OPEN,0
655400.109,2,0,0,1.000,1.000,1.000,-90.00,180.00,-9.00,OPEN,0
655400.113,2,0,0,1.000,1.000,1.000,-90.00,180.00,-9.00,OPEN,0
655400.117,2,0,0,1.000,1.000,1.000,-90.00,180.00,-9.00,OPEN,0
655400.121,2,0,0,1.000,1.000,1.000,-90.00,180.00,-9.00,OPEN,0
655400.125,2,0,0,1.000,1.000,1.000,-90.00,180.00,-9.00,OPEN,0
655400.130,2,0,0,1.000,1.000,1.000,-90.00,180.00,-9.00,OPEN,0
655400.134,2,0,0,1.000,1.000,1.000,-90.00,180.00,-9.00,OPEN,0
655400.139,2,0,0,1.000,1.000,1.000,-90.00,180.00,-9.00,OPEN,1
655400.144,2,0,0,1.000,1.000,1.000,-90.00,180.00,-9.00,OPEN,0
655400.149,2,0,0,1.000,1.000,1.000,-90.00,180.00,-9.00,OPEN,0
655400.154,2,0,0,1.000,1.000,1.000,-90.00,180.00,-9.00,OPEN,0
655400.158,2,0,0,1.000,1.000,1.000,-90.00,180.00,-9.00,OPEN,0
655400.163,2,0,0,1.000,1.000,1.000,-90.00,180.00,-9.00,OPEN,0
655400.167,2,0,0,1.000,1.000,1.000,-90.00,180.00,-13.50,OPEN,0
655400.170,2,0,0,1.000,1.000,1.000,-90.00,180.00,-13.50,OPEN,0
655400.174,2,0,0,1.000,1.000,1.000,-90.00,180.00,-13.50,OPEN,0
655400.178,2,0,0,1.000,1.000,1.000,-90.00,180.00,-13.50,OPEN,0
655400.182,2,0,0,1.000,1.000,1.000,-90.00,180.00,-13.50,OPEN,0
655400.185,2,0,0,1.000,1.000,1.000,-90.00,180.00,-13.50,OPEN,0
655400.189,2,0,0,1.000,1.000,1.000,-90.00,180.00,-13.50,OPEN,0
655400.193,2,0,0,1.000,1.000,1.000,-90.00,180.00,-13.50,OPEN,0
655400.196,2,0,0,1.000,1.000,1.000,-90.00,180.00,-13.50,OPEN,0
655400.200,2,0,0,1.000,1.000,1.000,-90.00,180.00,-13.50,OPEN,0
655400.204,2,0,0,1.000,1.000,1.000,-90.00,180.00,-13.50,OPEN,0
655400.208,2,0,0,1.000,1.000,1.000,-90.00,180.00,-13.50,OPEN,0
655400.212,2,0,0,1.000,1.000,1.000,-90.00,180.00,-13.50,OPEN,0
655400.216,2,0,0,1.000,1.000,1.000,-90.00,180.00,-13.50,OPEN,0
655400.219,2,0,0,1.000,1.000,1.000,-90.00,180.00,-13.50,OPEN,0
655400.224,2,0,0,1.000,1.000,1.000,-90.00,180.00,-13.50,OPEN,0
655400.228,2,0,0,1.000,1.000,1.000,-90.00,180.00,-13.50,OPEN,0
655400.233,2,0,0,1.000,1.000,1.000,-90.00,180.00,-13.50,OPEN,0
655400.237,2,0,0,1.000,1.000,1.000,-90.00,180.00,-13.50,OPEN,0
655400.242,2,0,0,1.000,1.000,1.000,-90.00,180.00,-13.50,OPEN,1
655400.245,2,0,0,1.000,1.000,1.000,-90.00,180.00,-13.50,OPEN,0
655400.249,2,0,0,1.000,1.000,1.000,-90.00,180.00,-13.50,OPEN,0
655400.253,2,0,0,1.000,1.000,1.000,-90.00,180.00,-13.50,OPEN,0
655400.257,2,0,0,1.000,1.000,1.000,-90.00,180.00,-13.50,OPEN,0
655400.261,2,0,0,1.000,1.000,1.000,-90.00,180.00,-13.50,OPEN,0
655400.264,2,0,0,1.000,1.000,1.000,-90.00,180.00,-13.50,OPEN,0
655400.268,2,0,0,1.000,1.000,1.000,-90.00,180.00,-18.00,OPEN,0
655400.272,2,0,0,1.000,1.000,1.000,-90.00,180.00,-18.00,OPEN,0
655400.275,2,0,0,1.000,1.000,1.000,-90.00,180.00,-18.00,OPEN,0
655400.279,2,0,0,1.000,1.000,1.000,-90.00,180.00,-18.00,OPEN,0
655400.283,2,0,0,1.000,1.000,1.000,-90.00,180.00,-18.00,OPEN,0
655400.289,2,0,0,1.000,1.000,1.000,-90.00,180.00,-18.00,OPEN,0
655400.293,2,0,0,1.000,1.000,1.000,-90.00,180.00,-18.00,OPEN,0
655400.299,2,0,0,1.000,1.000,1.000,-90.00,180.00,-18.00,OPEN,0
655400.305,2,0,0,1.000,1.000,1.000,-90.00,180.00,-18.00,OPEN,0
655400.310,2,0,0,1.000,1.000,1.000,-90.00,180.00,-18.00,OPEN,0
655400.314,2,0,0,1.000,1.000,1.000,-90.00,180.00,-18.00,OPEN,0
655400.319,2,0,0,1.000,1.000,1.000,-90.00,180.00,-18.00,OPEN,0
655400.324,2,0,0,1.000,1.000,1.000,-90.00,180.00,-18.00,OPEN,0
655400.328,2,0,0,1.000,1.000,1.000,-90.00,180.00,-18.00,OPEN,0
655400.333,2,0,0,1.000,1.000,1.000,-90.00,180.00,-18.00,OPEN,0
655400.336,2,0,0,1.000,1.000,1.000,-90.00,180.00,-18.00,OPEN,0
655400.340,2,0,0,1.000,1.000,1.000,-90.00,180.00,-18.00,OPEN,0
655400.345,2,0,0,1.000,1.000,1.000,-90.00,180.00,-18.00,OPEN,1
655400.349,2,0,0,1.000,1.000,1.000,-90.00,180.00,-18.00,OPEN,0
655400.353,2,0,0,1.000,1.000,1.000,-90.00,180.00,-18.00,OPEN,0
655400.357,2,0,0,1.000,1.000,1.000,-90.00,180.00,-18.00,OPEN,0
655400.361,2,0,0,1.000,1.000,1.000,-90.00,180.00,-18.00,OPEN,0
655400.365,2,0,0,1.000,1.000,1.000,-90.00,180.00,-18.00,OPEN,0
655400.370,2,0,0,1.000,1.000,1.000,-90.00,180.00,-22.50,OPEN,0
655400.375,2,0,0,1.000,1.000,1.000,-90.00,180.00,-22.50,OPEN,0
655400.380,2,0,0,1.000,1.000,1.000,-90.00,180.00,-22.50,OPEN,0
655400.384,2,0,0,1.000,1.000,1.000,-90.00,180.00,-22.50,OPEN,0
655400.388,2,0,0,1.000,1.000,1.000,-90.00,180.00,-22.50,OPEN,0
655400.393,2,0,0,1.000,1.000,1.000,-90.00,180.00,-22.50,OPEN,0
655400.397,2,0,0,1.000,1.000,1.000,-90.00,180.00,-22.50,OPEN,0
655400.401,2,0,0,1.000,1.000,1.000,-90.00,180.00,-22.50,OPEN,0
655400.404,2,0,0,1.000,1.000,1.000,-90.00,180.00,-22.50,OPEN,0
655400.408,2,0,0,0.999,1.000,1.000,-90.00,180.00,-22.50,OPEN,0
655400.412,2,0,0,0.998,1.000,1.000,-90.00,180.00,-22.50,OPEN,0
655400.415,2,0,0,0.994,1.000,1.000,-90.00,180.00,-22.50,OPEN,0
655400.419,2,0,0,0.963,1.000,1.000,-90.00,180.00,-22.50,OPEN,0
655400.423,2,0,0,0.904,1.000,1.000,-90.00,180.00,-22.50,OPEN,0
655400.428,2,0,0,0.723,1.000,1.000,-90.00,180.00,-22.50,OPEN,0
655400.431,2,0,0,0.684,1.000,1.000,-90.00,180.00,-22.50,OPEN,0
655400.435,2,0,0,0.927,1.000,1.000,-90.00,180.00,-22.50,OPEN,0
655400.438,2,0,0,0.966,1.000,1.000,-90.00,180.00,-22.50,OPEN,0
655400.442,2,0,0,0.999,1.000,1.000,-90.00,180.00,-22.50,OPEN,0
655400.446,2,0,0,1.000,1.000,1.000,-90.00,180.00,-22.50,OPEN,1
655400.450,2,0,0,1.000,1.000,1.000,-90.00,180.00,-22.50,OPEN,0
655400.453,2,0,0,1.000,1.000,1.000,-90.00,180.00,-22.50,OPEN,0
655400.457,2,0,0,1.000,1.000,1.000,-90.00,180.00,-22.50,OPEN,0
655400.461,2,0,0,1.000,1.000,1.000,-90.00,180.00,-22.50,OPEN,0
655400.465,2,0,0,1.000,1.000,1.000,-90.00,180.00,-22.50,OPEN,0
655400.468,2,0,0,1.000,1.000,1.000,-90.00,180.00,-22.50,OPEN,0
655400.472,0,0,0,1.000,1.000,1.000,-90.00,180.00,-22.50,OPEN,0
655400.476,0,0,0,1.000,1.000,1.000,-90.00,180.00,-22.50,OPEN,0
655400.479,0,0,0,1.000,1.000,1.000,-90.00,180.00,-22.50,OPEN,0
655400.483,0,0,0,1.000,1.000,1.000,-90.00,180.00,-22.50,OPEN,0
655400.487,0,0,0,1.000,1.000,1.000,-90.00,180.00,-22.50,OPEN,0
655400.491,0,0,0,1.000,1.000,1.000,-90.00,180.00,-22.50,OPEN,0
655400.494,0,0,0,1.000,1.000,1.000,-90.00,180.00,-22.50,OPEN,0
655400.499,0,0,0,1.000,1.000,1.000,-90.00,180.00,-22.50,OPEN,0
655400.503,0,0,0,1.000,1.000,1.000,-90.00,180.00,-22.50,OPEN,0
655400.507,0,0,0,1.000,1.000,1.000,-90.00,180.00,-22.50,OPEN,0
655400.511,0,0,0,1.000,1.000,1.000,-90.00,180.00,-22.50,OPEN,0
655400.514,0,0,0,1.000,1.000,1.000,-90.00,180.00,-22.50,OPEN,0
655400.518,0,0,0,1.000,1.000,1.000,-90.00,180.00,-22.50,OPEN,0
655400.522,0,0,0,1.000,1.000,1.000,-90.00,180.00,-22.50,OPEN,0
655400.526,0,0,0,1.000,1.000,1.000,-90.00,180.00,-22.50,OPEN,0
655400.530,0,0,0,1.000,1.000,1.000,-90.00,180.00,-22.50,OPEN,0
655400.535,0,0,0,1.000,1.000,1.000,-90.00,180.00,-22.50,OPEN,0
655400.539,0,0,0,1.000,1.000,1.000,-90.00,180.00,-22.50,OPEN,0
655400.543,0,0,0,1.000,1.000,1.000,-90.00,180.00,-22.50,OPEN,0
655400.548,0,0,0,1.000,1.000,1.000,-90.00,180.00,-22.50,OPEN,0
655400.552,0,0,0,1.000,1.000,1.000,-90.00,180.00,-22.50,OPEN,0
655400.556,0,0,0,1.000,1.000,1.000,-90.00,180.00,-22.50,OPEN,0
655400.560,0,0,0,1.000,1.000,1.000,-90.00,180.00,-22.50,OPEN,0
655400.564,0,0,0,1.000,1.000,1.000,-90.00,180.00,-22.50,OPEN,0
655400.568,0,0,0,1.000,1.000,1.000,-90.00,180.00,-22.50,OPEN,0
655400.572,0,0,0,1.000,1.000,1.000,-90.00,180.00,-22.50,OPEN,0
655400.575,0,0,0,1.000,1.000,1.000,-90.00,180.00,-22.50,OPEN,0
655400.579,0,0,0,1.000,1.000,1.000,-90.00,180.00,-22.50,OPEN,0
655400.583,0,0,0,1.000,1.000,1.000,-90.00,180.00,-22.50,OPEN,0
655400.586,0,0,0,1.000,1.000,1.000,-90.00,180.00,-22.50,OPEN,0
655400.590,0,0,0,1.000,1.000,1.000,-90.00,180.00,-22.50,OPEN,0
655400.594,0,0,0,1.000,1.000,1.000,-90.00,180.00,-22.50,OPEN,0
655400.597,0,0,0,1.000,1.000,1.000,-90.00,180.00,-22.50,OPEN,0
655400.601,0,0,0,1.000,1.000,1.000,-90.00,180.00,-22.50,OPEN,0
655400.606,0,0,0,1.000,1.000,1.000,-90.00,180.00,-22.50,OPEN,0
655400.610,0,0,0,1.000,1.000,1.000,-90.00,180.00,-22.50,OPEN,0
655400.614,0,0,0,1.000,1.000,1.000,-90.00,180.00,-22.50,OPEN,0
655400.618,0,0,0,1.000,1.000,1.000,-90.00,180.00,-22.50,OPEN,0
655400.622,0,0,0,1.000,1.000,1.000,-90.00,180.00,-22.50,OPEN,0
655400.626,0,0,0,1.000,1.000,1.000,-90.00,180.00,-22.50,OPEN,0
655400.630,0,0,0,1.000,1.000,1.000,-90.00,180.00,-22.50,OPEN,0
655400.634,0,0,0,1.000,1.000,1.000,-90.00,180.00,-22.50,OPEN,0
655400.638,0,0,0,1.000,1.000,1.000,-90.00,180.00,-22.50,OPEN,0
655400.642,0,0,0,1.000,1.000,1.000,-90.00,180.00,-22.50,OPEN,0
655400.646,0,0,0,1.000,1.000,1.000,-90.00,180.00,-22.50,OPEN,0
655400.650,0,0,0,1.000,1.000,1.000,-90.00,180.00,-22.50,OPEN,0
655400.653,0,0,0,1.000,1.000,1.000,-90.00,180.00,-22.50,OPEN,0
655400.658,0,0,0,1.000,1.000,1.000,-90.00,180.00,-22.50,OPEN,0
655400.662,0,0,0,1.000,1.000,1.000,-90.00,180.00,-22.50,OPEN,0
655400.667,0,0,0,1.000,1.000,1.000,-90.00,180.00,-22.50,OPEN,0
655400.672,0,0,0,1.000,1.000,1.000,-90.00,180.00,-22.50,OPEN,0
655400.675,0,0,0,1.000,1.000,1.000,-90.00,180.00,-22.50,OPEN,0
655400.681,0,0,0,1.000,1.000,1.000,-90.00,180.00,-22.50,OPEN,0
655400.684,0,0,0,1.000,1.000,1.000,-90.00,180.00,-22.50,OPEN,0
655400.688,0,0,0,1.000,1.000,1.000,-90.00,180.00,-22.50,OPEN,0
655400.692,0,0,0,1.000,1.000,1.000,-90.00,180.00,-22.50,OPEN,0
655400.696,0,0,0,1.000,1.000,1.000,-90.00,180.00,-22.50,OPEN,0
655400.700,0,0,0,1.000,1.000,1.000,-90.00,180.00,-22.50,OPEN,0
655400.704,0,0,0,1.000,1.000,1.000,-90.00,180.00,-22.50,OPEN,0
655400.708,0,0,0,1.000,1.000,1.000,-90.00,180.00,-22.50,OPEN,0
655400.711,0,0,0,1.000,1.000,1.000,-90.00,180.00,-22.50,OPEN,0
655400.715,0,0,0,1.000,1.000,1.000,-90.00,180.00,-22.50,OPEN,0
655400.720,0,0,0,1.000,1.000,1.000,-90.00,180.00,-22.50,OPEN,0
655400.724,0,0,0,1.000,1.000,1.000,-90.00,180.00,-22.50,OPEN,0
655400.728,0,0,0,1.000,1.000,1.000,-90.00,180.00,-22.50,OPEN,0
655400.732,0,0,0,1.000,1.000,1.000,-90.00,180.00,-22.50,OPEN,0
655400.736,0,0,0,1.000,1.000,1.000,-90.00,180.00,-22.50,OPEN,0
655400.741,0,0,0,1.000,1.000,1.000,-90.00,180.00,-22.50,OPEN,0
655400.746,0,0,0,1.000,1.000,1.000,-90.00,180.00,-22.50,OPEN,0
655400.750,0,0,0,1.000,1.000,1.000,-90.00,180.00,-22.50,OPEN,0
655400.755,0,0,0,1.000,1.000,1.000,-90.00,180.00,-22.50,OPEN,0
655400.759,0,0,0,1.000,1.000,1.000,-90.00,180.00,-22.50,OPEN,0
655400.763,0,0,0,1.000,1.000,1.000,-90.00,180.00,-22.50,OPEN,0
655400.767,0,0,0,1.000,1.000,1.000,-90.00,180.00,-22.50,OPEN,0
655400.771,0,0,0,1.000,1.000,1.000,-90.00,180.00,-22.50,OPEN,0
655400.775,0,0,0,1.000,1.000,1.000,-90.00,180.00,-22.50,OPEN,0
655400.780,0,0,0,1.000,1.000,1.000,-90.00,180.00,-22.50,OPEN,0
655400.783,0,0,0,1.000,1.000,1.000,-90.00,180.00,-22.50,OPEN,0
655400.787,0,0,0,1.000,1.000,1.000,-90.00,180.00,-22.50,OPEN,0
655400.792,0,0,0,1.000,1.000,1.000,-90.00,180.00,-22.50,OPEN,0
655400.796,0,0,0,1.000,1.000,1.000,-90.00,180.00,-22.50,OPEN,0
655400.801,0,0,0,1.000,1.000,1.000,-90.00,180.00,-22.50,OPEN,0
655400.806,0,0,0,1.000,1.000,1.000,-90.00,180.00,-22.50,OPEN,0
655400.810,0,0,0,1.000,1.000,1.000,-90.00,180.00,-22.50,OPEN,0
655400.814,0,0,0,1.000,1.000,1.000,-90.00,180.00,-22.50,OPEN,0
655400.818,0,0,0,1.000,1.000,1.000,-90.00,180.00,-22.50,OPEN,0
655400.822,0,0,0,1.000,1.000,1.000,-90.00,180.00,-22.50,OPEN,0
655400.826,0,0,0,1.000,1.000,1.000,-90.00,180.00,-22.50,OPEN,0
655400.832,0,0,0,1.000,1.000,1.000,-90.00,180.00,-22.50,OPEN,0
655400.836,0,0,0,1.000,1.000,1.000,-90.00,180.00,-22.50,OPEN,0
655400.841,0,0,0,1.000,1.000,1.000,-90.00,180.00,-22.50,OPEN,0
655400.845,0,0,0,1.000,1.000,1.000,-90.00,180.00,-22.50,OPEN,0
655400.849,0,0,0,1.000,1.000,1.000,-90.00,180.00,-22.50,OPEN,0
655400.853,0,0,0,1.000,1.000,1.000,-90.00,180.00,-22.50,OPEN,0
655400.858,0,0,0,1.000,1.000,1.000,-90.00,180.00,-22.50,OPEN,0
655400.862,0,0,0,1.000,1.000,1.000,-90.00,180.00,-22.50,OPEN,0
655400.866,0,0,0,1.000,1.000,1.000,-90.00,180.00,-22.50,OPEN,0
655400.869,0,0,0,1.000,1.000,1.000,-90.00,180.00,-22.50,OPEN,0
655400.873,0,0,0,1.000,1.000,1.000,-90.00,180.00,-22.50,OPEN,0
655400.877,0,0,0,0.999,1.000,1.000,-90.00,180.00,-22.50,OPEN,0
655400.880,0,0,0,0.997,1.000,1.000,-90.00,180.00,-22.50,OPEN,0
655400.884,0,0,0,0.997,1.000,1.000,-90.00,180.00,-22.50,OPEN,0
655400.888,0,0,0,0.991,1.000,1.000,-90.00,180.00,-22.50,OPEN,0
655400.892,0,0,0,0.989,1.000,1.000,-90.00,180.00,-22.50,OPEN,0
655400.896,0,0,0,0.999,1.000,1.000,-90.00,180.00,-22.50,OPEN,0
655400.900,0,0,0,1.000,1.000,1.000,-90.00,180.00,-22.50,OPEN,0
655400.904,0,0,0,1.000,1.000,1.000,-90.00,180.00,-22.50,OPEN,0
655400.907,0,0,0,1.000,1.000,1.000,-90.00,180.00,-22.50,OPEN,0
655400.911,0,0,0,1.000,1.000,1.000,-90.00,180.00,-22.50,OPEN,0
655400.915,0,0,0,1.000,1.000,1.000,-90.00,180.00,-22.50,OPEN,0
655400.918,0,0,0,1.000,1.000,1.000,-90.00,180.00,-22.50,OPEN,0
655400.922,0,0,0,1.000,1.000,1.000,-90.00,180.00,-22.50,OPEN,0
655400.926,0,0,0,1.000,1.000,1.000,-90.00,180.00,-22.50,OPEN,0
655400.930,0,0,0,1.000,1.000,1.000,-90.00,180.00,-22.50,OPEN,0
655400.933,0,0,0,1.000,1.000,1.000,-90.00,180.00,-22.50,OPEN,0
655400.937,0,0,0,1.000,1.000,1.000,-90.00,180.00,-22.50,OPEN,0
655400.941,0,0,0,1.000,1.000,1.000,-90.00,180.00,-22.50,OPEN,0
655400.945,0,0,0,1.000,1.000,1.000,-90.00,180.00,-22.50,OPEN,0
655400.948,0,0,0,1.000,1.000,1.000,-90.00,180.00,-22.50,OPEN,0
655400.953,0,0,0,1.000,1.000,1.000,-90.00,180.00,-22.50,OPEN,0
655400.958,0,0,0,1.000,1.000,1.000,-90.00,180.00,-22.50,OPEN,0
655400.962,0,0,0,1.000,1.000,1.000,-90.00,180.00,-22.50,OPEN,0
655400.966,0,0,0,1.000,1.000,1.000,-90.00,180.00,-22.50,OPEN,0
655400.970,0,0,0,1.000,1.000,1.000,-90.00,180.00,-22.50,OPEN,0
655400.974,0,0,0,1.000,1.000,1.000,-90.00,180.00,-22.50,OPEN,0
655400.978,0,0,0,1.000,1.000,1.000,-90.00,180.00,-22.50,OPEN,0
655400.982,0,0,0,1.000,1.000,1.000,-90.00,180.00,-22.50,OPEN,0
655400.986,0,0,0,1.000,1.000,1.000,-90.00,180.00,-22.50,OPEN,0
655400.990,0,0,0,1.000,1.000,1.000,-90.00,180.00,-22.50,OPEN,0
655400.994,0,0,0,1.000,1.000,1.000,-90.00,180.00,-22.50,OPEN,0
655400.998,0,0,0,1.000,1.000,1.000,-90.00,180.00,-22.50,OPEN,0
655401.001,0,0,0,0.863,1.000,1.000,-90.00,180.00,-22.50,OPEN,0
655401.005,0,0,0,0.956,1.000,1.000,-90.00,180.00,-22.50,OPEN,0
655401.009,0,0,0,0.993,1.000,1.000,-90.00,180.00,-22.50,OPEN,0
655401.012,0,0,0,0.993,1.000,1.000,-90.00,180.00,-22.50,OPEN,0
655401.016,0,0,0,0.970,1.000,1.000,-90.00,180.00,-22.50,OPEN,0
655401.019,0,0,0,0.616,1.000,1.000,-90.00,180.00,-22.50,OPEN,0
655401.023,0,0,0,0.909,1.000,1.000,-90.00,180.00,-22.50,OPEN,0
655401.028,0,0,0,0.990,1.000,1.000,-90.00,180.00,-22.50,OPEN,0
655401.033,0,0,0,0.994,1.000,1.000,-90.00,180.00,-22.50,OPEN,0
655401.038,0,0,0,0.995,1.000,1.000,-90.00,180.00,-22.50,OPEN,0
655401.043,0,0,0,0.996,1.000,1.000,-90.00,180.00,-22.50,OPEN,0
655401.048,0,0,0,0.995,1.000,1.000,-90.00,180.00,-22.50,OPEN,0
655401.052,0,0,0,0.993,1.000,1.000,-90.00,180.00,-22.50,OPEN,0
655401.057,0,0,0,0.990,1.000,1.000,-90.00,180.00,-22.50,OPEN,0
655401.061,0,0,0,0.985,1.000,1.000,-90.00,180.00,-22.50,OPEN,0
655401.065,0,0,0,0.983,1.000,1.000,-90.00,180.00,-22.50,OPEN,0
655401.069,0,0,0,0.985,1.000,1.000,-90.00,180.00,-22.50,OPEN,0
655401.072,3,0,0,0.989,1.000,1.000,-90.00,180.00,-22.50,CLOSED,0
655401.076,3,0,0,0.995,1.000,1.000,-90.00,180.00,-22.50,CLOSED,0
655401.080,3,0,0,0.997,1.000,1.000,-90.00,180.00,-22.50,CLOSED,0
655401.084,3,0,0,0.999,1.000,1.000,-90.00,180.00,-22.50,CLOSED,0
655401.088,3,0,0,0.999,1.000,1.000,-90.00,180.00,-22.50,CLOSED,0
655401.091,3,0,0,1.000,1.000,1.000,-90.00,180.00,-22.50,CLOSED,0
655401.096,3,0,0,1.000,1.000,1.000,-90.00,180.00,-22.50,CLOSED,0
655401.100,3,0,0,1.000,1.000,1.000,-90.00,180.00,-22.50,CLOSED,0
655401.104,3,0,0,1.000,1.000,1.000,-90.00,180.00,-22.50,CLOSED,0
655401.108,3,0,0,1.000,1.000,1.000,-90.00,180.00,-22.50,CLOSED,0
655401.111,3,0,0,1.000,1.000,1.000,-90.00,180.00,-22.50,CLOSED,0
655401.115,3,0,0,1.000,1.000,1.000,-90.00,180.00,-22.50,CLOSED,0
655401.118,3,0,0,1.000,1.000,1.000,-90.00,180.00,-22.50,CLOSED,0
655401.123,3,0,0,1.000,1.000,1.000,-90.00,180.00,-22.50,CLOSED,0
655401.128,3,0,0,1.000,1.000,1.000,-90.00,180.00,-22.50,CLOSED,0
655401.132,3,0,0,1.000,1.000,1.000,-90.00,180.00,-22.50,CLOSED,0
655401.138,3,0,0,1.000,1.000,1.000,-90.00,180.00,-22.50,CLOSED,0
655401.142,3,0,0,1.000,1.000,1.000,-90.00,180.00,-22.50,CLOSED,0
655401.147,3,0,0,1.000,1.000,1.000,-90.00,180.00,-22.50,CLOSED,0
655401.151,3,0,0,1.000,1.000,1.000,-90.00,180.00,-22.50,CLOSED,0
655401.155,3,0,0,1.000,1.000,1.000,-90.00,180.00,-22.50,CLOSED,0
655401.159,3,0,0,0.999,1.000,1.000,-90.00,180.00,-22.50,CLOSED,0
655401.162,3,0,0,0.997,1.000,1.000,-90.00,180.00,-22.50,CLOSED,0
655401.166,3,0,0,0.992,1.000,1.000,-90.00,180.00,-22.50,CLOSED,0
655401.171,3,0,0,0.987,1.000,1.000,-90.00,180.00,-22.50,CLOSED,0
655401.176,3,0,0,0.985,1.000,1.000,-90.00,180.00,-22.50,CLOSED,0
655401.180,3,0,0,0.989,1.000,1.000,-90.00,180.00,-22.50,CLOSED,0
655401.184,3,0,0,0.993,1.000,1.000,-90.00,180.00,-22.50,CLOSED,0
655401.190,3,0,0,0.996,1.000,1.000,-90.00,180.00,-22.50,CLOSED,0
655401.197,3,0,0,0.997,1.000,1.000,-90.00,180.00,-22.50,CLOSED,0
655401.205,3,0,0,0.998,1.000,1.000,-90.00,180.00,-22.50,CLOSED,0
655401.212,3,0,0,0.998,1.000,1.000,-90.00,180.00,-22.50,CLOSED,0
655401.219,3,0,0,0.999,1.000,1.000,-90.00,180.00,-22.50,CLOSED,0
655401.225,3,0,0,0.999,1.000,1.000,-90.00,180.00,-22.50,CLOSED,0
655401.232,3,0,0,0.999,1.000,1.000,-90.00,180.00,-22.50,CLOSED,0
655401.237,3,0,0,1.000,1.000,1.000,-90.00,180.00,-22.50,CLOSED,0
655401.242,3,0,0,1.000,1.000,1.000,-90.00,180.00,-22.50,CLOSED,0
655401.246,3,0,0,1.000,1.000,1.000,-90.00,180.00,-22.50,CLOSED,0
655401.251,3,0,0,1.000,1.000,1.000,-90.00,180.00,-22.50,CLOSED,0
655401.255,3,0,0,1.000,1.000,1.000,-90.00,180.00,-22.50,CLOSED,0
655401.259,3,0,0,1.000,1.000,1.000,-90.00,180.00,-22.50,CLOSED,0
655401.262,3,0,0,1.000,1.000,1.000,-90.00,180.00,-22.50,CLOSED,0
655401.267,3,0,0,1.000,1.000,1.000,-90.00,180.00,-22.50,CLOSED,0
655401.271,3,0,0,1.000,1.000,1.000,-90.00,180.00,-22.50,CLOSED,0
655401.275,3,0,0,1.000,1.000,1.000,-90.00,180.00,-22.50,CLOSED,0
655401.278,3,0,0,1.000,1.000,1.000,-90.00,180.00,-22.50,CLOSED,0
655401.282,3,0,0,1.000,1.000,1.000,-90.00,180.00,-22.50,CLOSED,0
655401.286,3,0,0,1.000,1.000,1.000,-90.00,180.00,-22.50,CLOSED,0
655401.290,3,0,0,1.000,1.000,1.000,-90.00,180.00,-22.50,CLOSED,0
655401.294,3,0,0,1.000,1.000,1.000,-90.00,180.00,-22.50,CLOSED,0
655401.298,3,0,0,1.000,1.000,1.000,-90.00,180.00,-22.50,CLOSED,0
655401.301,3,0,0,1.000,1.000,1.000,-90.00,180.00,-22.50,CLOSED,0
655401.305,3,0,0,1.000,1.000,1.000,-90.00,180.00,-22.50,CLOSED,0
655401.309,3,0,0,1.000,1.000,1.000,-90.00,180.00,-22.50,CLOSED,0
655401.313,3,0,0,1.000,1.000,1.000,-90.00,180.00,-22.50,CLOSED,0
655401.317,3,0,0,1.000,1.000,1.000,-90.00,180.00,-22.50,CLOSED,0
655401.320,3,0,0,1.000,1.000,1.000,-90.00,180.00,-22.50,CLOSED,0
655401.324,3,0,0,1.000,1.000,1.000,-90.00,180.00,-22.50,CLOSED,0
655401.328,3,0,0,1.000,1.000,1.000,-90.00,180.00,-22.50,CLOSED,0
655401.332,3,0,0,1.000,1.000,1.000,-90.00,180.00,-22.50,CLOSED,0
655401.336,3,0,0,1.000,1.000,1.000,-90.00,180.00,-22.50,CLOSED,0
655401.339,3,0,0,1.000,1.000,1.000,-90.00,180.00,-22.50,CLOSED,0
655401.343,3,0,0,1.000,1.000,1.000,-90.00,180.00,-22.50,CLOSED,0
655401.347,3,0,0,1.000,1.000,1.000,-90.00,180.00,-22.50,CLOSED,0
655401.351,3,0,0,1.000,1.000,1.000,-90.00,180.00,-22.50,CLOSED,0
655401.354,3,0,0,1.000,1.000,1.000,-90.00,180.00,-22.50,CLOSED,0
655401.358,3,0,0,1.000,1.000,1.000,-90.00,180.00,-22.50,CLOSED,0
655401.362,3,0,0,1.000,1.000,1.000,-90.00,180.00,-22.50,CLOSED,0
655401.366,3,0,0,1.000,1.000,1.000,-90.00,180.00,-22.50,CLOSED,0
655401.369,3,0,0,1.000,1.000,1.000,-90.00,180.00,-22.50,CLOSED,0
655401.373,3,0,0,1.000,1.000,1.000,-90.00,180.00,-22.50,CLOSED,0
655401.377,3,0,0,1.000,1.000,1.000,-90.00,180.00,-22.50,CLOSED,0
655401.382,3,0,0,1.000,1.000,1.000,-90.00,180.00,-22.50,CLOSED,0
655401.386,3,0,0,1.000,1.000,1.000,-90.00,180.00,-22.50,CLOSED,0
655401.390,3,0,0,1.000,1.000,1.000,-90.00,180.00,-22.50,CLOSED,0
655401.395,3,0,0,1.000,1.000,1.000,-90.00,180.00,-22.50,CLOSED,0
655401.399,3,0,0,1.000,1.000,1.000,-90.00,180.00,-22.50,CLOSED,0
655401.404,3,0,0,1.000,1.000,1.000,-90.00,180.00,-22.50,CLOSED,0
655401.408,3,0,0,1.000,1.000,1.000,-90.00,180.00,-22.50,CLOSED,0
655401.411,3,0,0,1.000,1.000,1.000,-90.00,180.00,-22.50,CLOSED,0
655401.415,3,0,0,1.000,1.000,1.000,-90.00,180.00,-22.50,CLOSED,0
655401.419,3,0,0,1.000,1.000,1.000,-90.00,180.00,-22.50,CLOSED,0
655401.423,3,0,0,1.000,1.000,1.000,-90.00,180.00,-22.50,CLOSED,0
655401.426,3,0,0,1.000,1.000,1.000,-90.00,180.00,-22.50,CLOSED,0
655401.430,3,0,0,1.000,1.000,1.000,-90.00,180.00,-22.50,CLOSED,0
655401.434,3,0,0,1.000,1.000,1.000,-90.00,180.00,-22.50,CLOSED,0
655401.437,3,0,0,1.000,1.000,1.000,-90.00,180.00,-22.50,CLOSED,0
655401.441,3,0,0,1.000,1.000,1.000,-90.00,180.00,-22.50,CLOSED,0
655401.446,3,0,0,1.000,1.000,1.000,-90.00,180.00,-22.50,CLOSED,0
655401.449,3,0,0,0.999,1.000,1.000,-90.00,180.00,-22.50,CLOSED,0
655401.453,3,0,0,0.999,1.000,1.000,-90.00,180.00,-22.50,CLOSED,0
655401.457,3,0,0,0.999,1.000,1.000,-90.00,180.00,-22.50,CLOSED,0
655401.461,3,0,0,1.000,1.000,1.000,-90.00,180.00,-22.50,CLOSED,0
655401.465,3,0,0,1.000,1.000,1.000,-90.00,180.00,-22.50,CLOSED,0
655401.470,3,0,0,1.000,1.000,1.000,-90.00,180.00,-22.50,CLOSED,0
655401.474,3,0,0,1.000,1.000,1.000,-90.00,180.00,-22.50,CLOSED,0
655401.479,3,0,0,1.000,1.000,1.000,-90.00,180.00,-22.50,CLOSED,0
655401.484,3,0,0,1.000,1.000,1.000,-90.00,180.00,-22.50,CLOSED,0
655401.488,3,0,0,1.000,1.000,1.000,-90.00,180.00,-22.50,CLOSED,0
655401.493,3,0,0,1.000,1.000,1.000,-90.00,180.00,-22.50,CLOSED,0
655401.497,3,0,0,1.000,1.000,1.000,-90.00,180.00,-22.50,CLOSED,0
655401.500,3,0,0,1.000,1.000,1.000,-90.00,180.00,-22.50,CLOSED,0
655401.504,3,0,0,1.000,1.000,1.000,-90.00,180.00,-22.50,CLOSED,0
655401.508,3,0,0,1.000,1.000,1.000,-90.00,180.00,-22.50,CLOSED,0
655401.512,3,0,0,1.000,1.000,1.000,-90.00,180.00,-22.50,CLOSED,0
655401.516,3,0,0,1.000,1.000,1.000,-90.00,180.00,-22.50,CLOSED,0
655401.520,3,0,0,1.000,1.000,1.000,-90.00,180.00,-22.50,CLOSED,0
655401.524,3,0,0,1.000,1.000,1.000,-90.00,180.00,-22.50,CLOSED,0
655401.529,3,0,0,0.984,1.000,1.000,-90.00,180.00,-22.50,CLOSED,0
655401.533,3,0,0,0.751,1.000,1.000,-90.00,180.00,-22.50,CLOSED,0
655401.538,3,0,0,0.676,1.000,1.000,-90.00,180.00,-22.50,CLOSED,0
655401.543,3,0,0,0.897,1.000,1.000,-90.00,180.00,-22.50,CLOSED,0
655401.547,3,0,0,0.933,1.000,1.000,-90.00,180.00,-22.50,CLOSED,0
655401.551,3,0,0,0.995,1.000,1.000,-90.00,180.00,-22.50,CLOSED,0
655401.555,3,0,0,1.000,1.000,1.000,-90.00,180.00,-22.50,CLOSED,0
655401.560,3,0,0,1.000,1.000,1.000,-90.00,180.00,-22.50,CLOSED,0
655401.564,3,0,0,1.000,1.000,1.000,-90.00,180.00,-22.50,CLOSED,0
655401.568,3,0,0,1.000,1.000,1.000,-90.00,180.00,-22.50,CLOSED,0
655401.572,3,0,0,1.000,1.000,1.000,-90.00,180.00,-22.50,CLOSED,0
655401.577,3,0,0,1.000,1.000,1.000,-90.00,180.00,-22.50,CLOSED,0
655401.581,3,0,0,1.000,1.000,1.000,-90.00,180.00,-22.50,CLOSED,0
655401.585,0,0,0,1.000,1.000,1.000,-90.00,180.00,-22.50,CLOSED,0
655401.589,0,0,0,1.000,1.000,1.000,-90.00,180.00,-22.50,CLOSED,0
655401.593,0,0,0,1.000,1.000,1.000,-90.00,180.00,-22.50,CLOSED,0
655401.597,0,0,0,1.000,1.000,1.000,-90.00,180.00,-22.50,CLOSED,0
655401.601,0,0,0,1.000,1.000,1.000,-90.00,180.00,-22.50,CLOSED,0
655401.606,0,0,0,1.000,1.000,1.000,-90.00,180.00,-22.50,CLOSED,0
655401.609,0,0,0,1.000,1.000,1.000,-90.00,180.00,-22.50,CLOSED,0
655401.614,0,0,0,1.000,1.000,1.000,-90.00,180.00,-22.50,CLOSED,0
655401.621,0,0,0,1.000,1.000,1.000,-90.00,180.00,-22.50,CLOSED,0
655401.627,0,0,0,1.000,1.000,1.000,-90.00,180.00,-22.50,CLOSED,0
655401.632,0,0,0,1.000,1.000,1.000,-90.00,180.00,-22.50,CLOSED,0
655401.637,0,0,0,1.000,1.000,1.000,-90.00,180.00,-22.50,CLOSED,0
655401.642,0,0,0,1.000,1.000,1.000,-90.00,180.00,-22.50,CLOSED,0
655401.647,0,0,0,1.000,1.000,1.000,-90.00,180.00,-22.50,CLOSED,0
655401.652,0,0,0,1.000,1.000,1.000,-90.00,180.00,-22.50,CLOSED,0
655401.656,0,0,0,1.000,1.000,1.000,-90.00,180.00,-22.50,CLOSED,0
655401.660,0,0,0,1.000,1.000,1.000,-90.00,180.00,-22.50,CLOSED,0
655401.664,0,0,0,1.000,1.000,1.000,-90.00,180.00,-22.50,CLOSED,0
655401.668,0,0,0,1.000,1.000,1.000,-90.00,180.00,-22.50,CLOSED,0
655401.671,0,0,0,1.000,1.000,1.000,-90.00,180.00,-22.50,CLOSED,0
655401.675,0,0,0,1.000,1.000,1.000,-90.00,180.00,-22.50,CLOSED,0
655401.679,0,0,0,1.000,1.000,1.000,-90.00,180.00,-22.50,CLOSED,0
655401.683,0,0,0,1.000,1.000,1.000,-90.00,180.00,-22.50,CLOSED,0
655401.687,0,0,0,1.000,1.000,1.000,-90.00,180.00,-22.50,CLOSED,0
655401.691,0,0,0,1.000,1.000,1.000,-90.00,180.00,-22.50,CLOSED,0
655401.696,0,0,0,1.000,1.000,1.000,-90.00,180.00,-22.50,CLOSED,0
655401.700,0,0,0,1.000,1.000,1.000,-90.00,180.00,-22.50,CLOSED,0
655401.704,0,0,0,1.000,1.000,1.000,-90.00,180.00,-22.50,CLOSED,0
655401.708,0,0,0,1.000,1.000,1.000,-90.00,180.00,-22.50,CLOSED,0
655401.711,0,0,0,1.000,1.000,1.000,-90.00,180.00,-22.50,CLOSED,0
655401.716,0,0,0,1.000,1.000,1.000,-90.00,180.00,-22.50,CLOSED,0
655401.719,0,0,0,1.000,1.000,1.000,-90.00,180.00,-22.50,CLOSED,0
655401.723,0,0,0,1.000,1.000,1.000,-90.00,180.00,-22.50,CLOSED,0
655401.728,0,0,0,1.000,1.000,1.000,-90.00,180.00,-22.50,CLOSED,0
655401.732,0,0,0,1.000,1.000,1.000,-90.00,180.00,-22.50,CLOSED,0
655401.736,0,0,0,1.000,1.000,1.000,-90.00,180.00,-22.50,CLOSED,0
655401.740,0,0,0,1.000,1.000,1.000,-90.00,180.00,-22.50,CLOSED,0
655401.745,0,0,0,1.000,1.000,1.000,-90.00,180.00,-22.50,CLOSED,0
655401.749,0,0,0,1.000,1.000,1.000,-90.00,180.00,-22.50,CLOSED,0
655401.753,0,0,0,1.000,1.000,1.000,-90.00,180.00,-22.50,CLOSED,0
655401.756,0,0,0,1.000,1.000,1.000,-90.00,180.00,-22.50,CLOSED,0
655401.761,0,0,0,1.000,1.000,1.000,-90.00,180.00,-22.50,CLOSED,0
655401.765,0,0,0,1.000,1.000,1.000,-90.00,180.00,-22.50,CLOSED,0
655401.769,0,0,0,1.000,1.000,1.000,-90.00,180.00,-22.50,CLOSED,0
655401.773,0,0,0,1.000,1.000,1.000,-90.00,180.00,-22.50,CLOSED,0
655401.778,0,0,0,1.000,1.000,1.000,-90.00,180.00,-22.50,CLOSED,0
655401.782,0,0,0,1.000,1.000,1.000,-90.00,180.00,-22.50,CLOSED,0
655401.785,0,0,0,1.000,1.000,1.000,-90.00,180.00,-22.50,CLOSED,0
655401.789,0,0,0,1.000,1.000,1.000,-90.00,180.00,-22.50,CLOSED,0
655401.793,0,0,0,1.000,1.000,1.000,-90.00,180.00,-22.50,CLOSED,0
655401.797,0,0,0,1.000,1.000,1.000,-90.00,180.00,-22.50,CLOSED,0
655401.800,0,0,0,1.000,1.000,1.000,-90.00,180.00,-22.50,CLOSED,0
655401.804,0,0,0,1.000,1.000,1.000,-90.00,180.00,-22.50,CLOSED,0
655401.808,0,0,0,1.000,1.000,1.000,-90.00,180.00,-22.50,CLOSED,0
655401.812,0,0,0,1.000,1.000,1.000,-90.00,180.00,-22.50,CLOSED,0
655401.816,0,0,0,1.000,1.000,1.000,-90.00,180.00,-22.50,CLOSED,0
655401.820,0,0,0,1.000,1.000,1.000,-90.00,180.00,-22.50,CLOSED,0
655401.825,0,0,0,1.000,1.000,1.000,-90.00,180.00,-22.50,CLOSED,0
655401.830,0,0,0,1.000,1.000,1.000,-90.00,180.00,-22.50,CLOSED,0
655401.834,0,0,0,1.000,1.000,1.000,-90.00,180.00,-22.50,CLOSED,0
655401.839,0,0,0,1.000,1.000,1.000,-90.00,180.00,-22.50,CLOSED,0
655401.843,0,0,0,1.000,1.000,1.000,-90.00,180.00,-22.50,CLOSED,0
655401.848,0,0,0,1.000,1.000,1.000,-90.00,180.00,-22.50,CLOSED,0
655401.852,0,0,0,1.000,1.000,1.000,-90.00,180.00,-22.50,CLOSED,0
655401.856,0,0,0,1.000,1.000,1.000,-90.00,180.00,-22.50,CLOSED,0
655401.860,0,0,0,1.000,1.000,1.000,-90.00,180.00,-22.50,CLOSED,0
655401.863,0,0,0,1.000,1.000,1.000,-90.00,180.00,-22.50,CLOSED,0
655401.867,0,0,0,1.000,1.000,1.000,-90.00,180.00,-22.50,CLOSED,0
655401.871,0,0,0,1.000,1.000,1.000,-90.00,180.00,-22.50,CLOSED,0
655401.875,0,0,0,1.000,1.000,1.000,-90.00,180.00,-22.50,CLOSED,0
655401.879,0,0,0,1.000,1.000,1.000,-90.00,180.00,-22.50,CLOSED,0
655401.883,0,0,0,1.000,1.000,1.000,-90.00,180.00,-22.50,CLOSED,0
655401.887,0,0,0,1.000,1.000,1.000,-90.00,180.00,-22.50,CLOSED,0
655401.891,0,0,0,1.000,1.000,1.000,-90.00,180.00,-22.50,CLOSED,0
655401.895,0,0,0,1.000,1.000,1.000,-90.00,180.00,-22.50,CLOSED,0
655401.899,0,0,0,1.000,1.000,1.000,-90.00,180.00,-22.50,CLOSED,0
655401.903,0,0,0,1.000,1.000,1.000,-90.00,180.00,-22.50,CLOSED,0
655401.907,0,0,0,1.000,1.000,1.000,-90.00,180.00,-22.50,CLOSED,0
655401.911,0,0,0,1.000,1.000,1.000,-90.00,180.00,-22.50,CLOSED,0
655401.915,0,0,0,1.000,1.000,1.000,-90.00,180.00,-22.50,CLOSED,0
655401.919,0,0,0,1.000,1.000,1.000,-90.00,180.00,-22.50,CLOSED,0
655401.923,0,0,0,1.000,1.000,1.000,-90.00,180.00,-22.50,CLOSED,0
655401.927,0,0,0,1.000,1.000,1.000,-90.00,180.00,-22.50,CLOSED,0
655401.931,0,0,0,1.000,1.000,1.000,-90.00,180.00,-22.50,CLOSED,0
655401.936,0,0,0,1.000,1.000,1.000,-90.00,180.00,-22.50,CLOSED,0
655401.941,0,0,0,1.000,1.000,1.000,-90.00,180.00,-22.50,CLOSED,0
655401.946,0,0,0,1.000,1.000,1.000,-90.00,180.00,-22.50,CLOSED,0
655401.951,0,0,0,1.000,1.000,1.000,-90.00,180.00,-22.50,CLOSED,0
655401.955,0,0,0,1.000,1.000,1.000,-90.00,180.00,-22.50,CLOSED,0
655401.959,0,0,0,1.000,1.000,1.000,-90.00,180.00,-22.50,CLOSED,0
655401.964,0,0,0,1.000,1.000,1.000,-90.00,180.00,-22.50,CLOSED,0
655401.968,0,0,0,1.000,1.000,1.000,-90.00,180.00,-22.50,CLOSED,0
655401.972,0,0,0,1.000,1.000,1.000,-90.00,180.00,-22.50,CLOSED,0
655401.975,0,0,0,1.000,1.000,1.000,-90.00,180.00,-22.50,CLOSED,0
655401.979,0,0,0,1.000,1.000,1.000,-90.00,180.00,-22.50,CLOSED,0
655401.983,0,0,0,1.000,1.000,1.000,-90.00,180.00,-22.50,CLOSED,0
655401.988,0,0,0,1.000,1.000,1.000,-90.00,180.00,-22.50,CLOSED,0
655401.993,0,0,0,1.000,1.000,1.000,-90.00,180.00,-22.50,CLOSED,0
655401.997,0,0,0,1.000,1.000,1.000,-90.00,180.00,-22.50,CLOSED,0
655402.000,0,0,0,1.000,1.000,1.000,-90.00,180.00,-22.50,CLOSED,0
655402.005,0,0,0,1.000,1.000,1.000,-90.00,180.00,-22.50,CLOSED,0
655402.008,0,0,0,1.000,1.000,1.000,-90.00,180.00,-22.50,CLOSED,0
655402.012,0,0,0,1.000,1.000,1.000,-90.00,180.00,-22.50,CLOSED,0
655402.016,0,0,0,1.000,1.000,1.000,-90.00,180.00,-22.50,CLOSED,0
655402.020,0,0,0,1.000,1.000,1.000,-90.00,180.00,-22.50,CLOSED,0
655402.024,0,0,0,1.000,1.000,1.000,-90.00,180.00,-22.50,CLOSED,0
655402.029,0,0,0,1.000,1.000,1.000,-90.00,180.00,-22.50,CLOSED,0
655402.033,0,0,0,1.000,1.000,1.000,-90.00,180.00,-22.50,CLOSED,0
655402.036,0,0,0,1.000,1.000,1.000,-90.00,180.00,-22.50,CLOSED,0
655402.041,0,0,0,1.000,1.000,1.000,-90.00,180.00,-22.50,CLOSED,0
655402.044,0,0,0,1.000,1.000,1.000,-90.00,180.00,-22.50,CLOSED,0
655402.049,0,0,0,1.000,1.000,1.000,-90.00,180.00,-22.50,CLOSED,0
655402.053,0,0,0,1.000,1.000,1.000,-90.00,180.00,-22.50,CLOSED,0
655402.058,0,0,0,1.000,1.000,1.000,-90.00,180.00,-22.50,CLOSED,0
655402.062,0,0,0,1.000,1.000,1.000,-90.00,180.00,-22.50,CLOSED,0
655402.065,0,0,0,1.000,1.000,1.000,-90.00,180.00,-22.50,CLOSED,0
655402.069,0,0,0,1.000,1.000,1.000,-90.00,180.00,-22.50,CLOSED,0
655402.074,0,0,0,1.000,1.000,1.000,-90.00,180.00,-22.50,CLOSED,0
655402.078,0,0,0,1.000,1.000,1.000,-90.00,180.00,-22.50,CLOSED,0
655402.083,0,0,0,1.000,1.000,1.000,-90.00,180.00,-22.50,CLOSED,0
655402.087,0,0,0,1.000,1.000,1.000,-90.00,180.00,-22.50,CLOSED,0
655402.091,0,0,0,1.000,1.000,1.000,-90.00,180.00,-22.50,CLOSED,0
655402.095,0,0,0,1.000,1.000,1.000,-90.00,180.00,-22.50,CLOSED,0
655402.099,0,0,0,1.000,1.000,1.000,-90.00,180.00,-22.50,CLOSED,0
655402.103,0,0,0,1.000,1.000,1.000,-90.00,180.00,-22.50,CLOSED,0
655402.106,0,0,0,1.000,1.000,1.000,-90.00,180.00,-22.50,CLOSED,0
655402.110,0,0,0,1.000,1.000,1.000,-90.00,180.00,-22.50,CLOSED,0
655402.114,0,0,0,1.000,1.000,1.000,-90.00,180.00,-22.50,CLOSED,0
655402.118,0,0,0,1.000,1.000,1.000,-90.00,180.00,-22.50,CLOSED,0
655402.122,0,0,0,1.000,1.000,1.000,-90.00,180.00,-22.50,CLOSED,0
655402.126,0,0,0,1.000,1.000,1.000,-90.00,180.00,-22.50,CLOSED,0
655402.130,0,0,0,1.000,1.000,1.000,-90.00,180.00,-22.50,CLOSED,0
655402.133,0,0,0,1.000,1.000,1.000,-90.00,180.00,-22.50,CLOSED,0
655402.138,0,0,0,1.000,1.000,1.000,-90.00,180.00,-22.50,CLOSED,0
655402.141,0,0,0,1.000,1.000,1.000,-90.00,180.00,-22.50,CLOSED,0
655402.145,0,0,0,1.000,1.000,1.000,-90.00,180.00,-22.50,CLOSED,0
655402.149,0,0,0,1.000,1.000,1.000,-90.00,180.00,-22.50,CLOSED,0
655402.153,0,0,0,1.000,1.000,1.000,-90.00,180.00,-22.50,CLOSED,0
655402.157,0,0,0,1.000,1.000,1.000,-90.00,180.00,-22.50,CLOSED,0
655402.160,0,0,0,1.000,1.000,1.000,-90.00,180.00,-22.50,CLOSED,0
655402.164,0,0,0,1.000,1.000,1.000,-90.00,180.00,-22.50,CLOSED,0
655402.168,0,0,0,1.000,1.000,1.000,-90.00,180.00,-22.50,CLOSED,0
655402.172,0,0,0,1.000,1.000,1.000,-90.00,180.00,-22.50,CLOSED,0
655402.175,0,0,0,1.000,1.000,1.000,-90.00,180.00,-22.50,CLOSED,0
655402.179,0,0,0,1.000,1.000,1.000,-90.00,180.00,-22.50,CLOSED,0
655402.184,0,0,0,1.000,1.000,1.000,-90.00,180.00,-22.50,CLOSED,0
655402.188,0,0,0,1.000,1.000,1.000,-90.00,180.00,-22.50,CLOSED,0
655402.193,0,0,0,1.000,1.000,1.000,-90.00,180.00,-22.50,CLOSED,0
655402.197,0,0,0,1.000,1.000,1.000,-90.00,180.00,-22.50,CLOSED,0
655402.201,0,0,0,1.000,1.000,1.000,-90.00,180.00,-22.50,CLOSED,0
655402.205,0,0,0,1.000,1.000,1.000,-90.00,180.00,-22.50,CLOSED,0
655402.209,0,0,0,1.000,1.000,1.000,-90.00,180.00,-22.50,CLOSED,0
655402.213,0,0,0,1.000,1.000,1.000,-90.00,180.00,-22.50,CLOSED,0
655402.217,0,0,0,1.000,1.000,1.000,-90.00,180.00,-22.50,CLOSED,0
655402.221,0,0,0,1.000,1.000,1.000,-90.00,180.00,-22.50,CLOSED,0
655402.225,0,0,0,1.000,1.000,1.000,-90.00,180.00,-22.50,CLOSED,0
655402.229,0,0,0,1.000,1.000,1.000,-90.00,180.00,-22.50,CLOSED,0
655402.233,0,0,0,1.000,1.000,1.000,-90.00,180.00,-22.50,CLOSED,0
655402.239,0,0,0,1.000,1.000,1.000,-90.00,180.00,-22.50,CLOSED,0
655402.244,0,0,0,1.000,1.000,1.000,-90.00,180.00,-22.50,CLOSED,0
655402.249,0,0,0,1.000,1.000,1.000,-90.00,180.00,-22.50,CLOSED,0
655402.253,0,0,0,1.000,1.000,1.000,-90.00,180.00,-22.50,CLOSED,0
655402.258,0,0,0,1.000,1.000,1.000,-90.00,180.00,-22.50,CLOSED,0
655402.262,0,0,0,1.000,1.000,1.000,-90.00,180.00,-22.50,CLOSED,0
655402.266,0,0,0,1.000,1.000,1.000,-90.00,180.00,-22.50,CLOSED,0
655402.270,0,0,0,1.000,1.000,1.000,-90.00,180.00,-22.50,CLOSED,0
655402.274,0,0,0,1.000,1.000,1.000,-90.00,180.00,-22.50,CLOSED,0
655402.278,0,0,0,1.000,1.000,1.000,-90.00,180.00,-22.50,CLOSED,0
655402.282,0,0,0,1.000,1.000,1.000,-90.00,180.00,-22.50,CLOSED,0
655402.287,0,0,0,1.000,1.000,1.000,-90.00,180.00,-22.50,CLOSED,0
655402.291,0,0,0,1.000,1.000,1.000,-90.00,180.00,-22.50,CLOSED,0
655402.296,0,0,0,1.000,1.000,1.000,-90.00,180.00,-22.50,CLOSED,0
655402.303,0,0,0,1.000,1.000,1.000,-90.00,180.00,-22.50,CLOSED,0
655402.310,0,0,0,1.000,1.000,1.000,-90.00,180.00,-22.50,CLOSED,0
655402.315,0,0,0,1.000,1.000,1.000,-90.00,180.00,-22.50,CLOSED,0
655402.321,0,0,0,1.000,1.000,1.000,-90.00,180.00,-22.50,CLOSED,0
655402.326,0,0,0,1.000,1.000,1.000,-90.00,180.00,-22.50,CLOSED,0
655402.331,0,0,0,1.000,1.000,1.000,-90.00,180.00,-22.50,CLOSED,0
655402.336,0,0,0,1.000,1.000,1.000,-90.00,180.00,-22.50,CLOSED,0
655402.341,0,0,0,1.000,1.000,1.000,-90.00,180.00,-22.50,CLOSED,0
655402.345,0,0,0,1.000,1.000,1.000,-90.00,180.00,-22.50,CLOSED,0
655402.349,0,0,0,1.000,1.000,1.000,-90.00,180.00,-22.50,CLOSED,0
655402.353,0,0,0,1.000,1.000,1.000,-90.00,180.00,-22.50,CLOSED,0
655402.356,0,0,0,1.000,1.000,1.000,-90.00,180.00,-22.50,CLOSED,0
655402.360,0,0,0,1.000,1.000,1.000,-90.00,180.00,-22.50,CLOSED,0
655402.364,0,0,0,1.000,1.000,1.000,-90.00,180.00,-22.50,CLOSED,0
655402.368,0,0,0,1.000,1.000,1.000,-90.00,180.00,-22.50,CLOSED,0
655402.373,0,0,0,1.000,1.000,1.000,-90.00,180.00,-22.50,CLOSED,0
655402.376,0,0,0,1.000,1.000,1.000,-90.00,180.00,-22.50,CLOSED,0
655402.380,0,0,0,1.000,1.000,1.000,-90.00,180.00,-22.50,CLOSED,0
655402.384,0,0,0,1.000,1.000,1.000,-90.00,180.00,-22.50,CLOSED,0
655402.388,0,0,0,1.000,1.000,1.000,-90.00,180.00,-22.50,CLOSED,0
655402.392,0,0,0,1.000,1.000,1.000,-90.00,180.00,-22.50,CLOSED,0
655402.395,0,0,0,1.000,1.000,1.000,-90.00,180.00,-22.50,CLOSED,0
655402.399,0,0,0,1.000,1.000,1.000,-90.00,180.00,-22.50,CLOSED,0
655402.403,0,0,0,1.000,1.000,1.000,-90.00,180.00,-22.50,CLOSED,0
655402.408,0,0,0,1.000,1.000,1.000,-90.00,180.00,-22.50,CLOSED,0
655402.412,0,0,0,1.000,1.000,1.000,-90.00,180.00,-22.50,CLOSED,0
655402.417,0,0,0,1.000,1.000,1.000,-90.00,180.00,-22.50,CLOSED,0
655402.423,0,0,0,1.000,1.000,1.000,-90.00,180.00,-22.50,CLOSED,0
655402.429,0,0,0,1.000,1.000,1.000,-90.00,180.00,-22.50,CLOSED,0
655402.434,0,0,0,1.000,1.000,1.000,-90.00,180.00,-22.50,CLOSED,0
655402.440,0,0,0,1.000,1.000,1.000,-90.00,180.00,-22.50,CLOSED,0
655402.444,0,0,0,1.000,1.000,1.000,-90.00,180.00,-22.50,CLOSED,0
655402.448,0,0,0,1.000,1.000,1.000,-90.00,180.00,-22.50,CLOSED,0
655402.452,0,0,0,1.000,1.000,1.000,-90.00,180.00,-22.50,CLOSED,0
655402.456,0,0,0,1.000,1.000,1.000,-90.00,180.00,-22.50,CLOSED,0
655402.459,0,0,0,1.000,1.000,1.000,-90.00,180.00,-22.50,CLOSED,0
655402.463,0,0,0,1.000,1.000,1.000,-90.00,180.00,-22.50,CLOSED,0
655402.467,0,0,0,1.000,1.000,1.000,-90.00,180.00,-22.50,CLOSED,0
655402.470,0,0,0,1.000,1.000,1.000,-90.00,180.00,-22.50,CLOSED,0
655402.475,0,0,0,1.000,1.000,1.000,-90.00,180.00,-22.50,CLOSED,0
655402.479,0,0,0,1.000,1.000,1.000,-90.00,180.00,-22.50,CLOSED,0
655402.483,0,0,0,1.000,1.000,1.000,-90.00,180.00,-22.50,CLOSED,0
655402.487,0,0,0,1.000,1.000,1.000,-90.00,180.00,-22.50,CLOSED,0
655402.491,0,0,0,1.000,1.000,1.000,-90.00,180.00,-22.50,CLOSED,0
655402.495,0,0,0,1.000,1.000,1.000,-90.00,180.00,-22.50,CLOSED,0
655402.500,0,0,0,1.000,1.000,1.000,-90.00,180.00,-22.50,CLOSED,0
655402.504,0,0,0,1.000,1.000,1.000,-90.00,180.00,-22.50,CLOSED,0
655402.508,0,0,0,1.000,1.000,1.000,-90.00,180.00,-22.50,CLOSED,0
655402.512,0,0,0,1.000,1.000,1.000,-90.00,180.00,-22.50,CLOSED,0
655402.516,0,0,0,1.000,1.000,1.000,-90.00,180.00,-22.50,CLOSED,0
655402.522,0,0,0,1.000,1.000,1.000,-90.00,180.00,-22.50,CLOSED,0
655402.527,0,0,0,1.000,1.000,1.000,-90.00,180.00,-22.50,CLOSED,0
655402.533,0,0,0,1.000,1.000,1.000,-90.00,180.00,-22.50,CLOSED,0
655402.539,0,0,0,1.000,1.000,1.000,-90.00,180.00,-22.50,CLOSED,0
655402.545,0,0,0,1.000,1.000,1.000,-90.00,180.00,-22.50,CLOSED,0
655402.549,0,0,0,1.000,1.000,1.000,-90.00,180.00,-22.50,CLOSED,0
655402.554,0,0,0,1.000,1.000,1.000,-90.00,180.00,-22.50,CLOSED,0
655402.558,0,0,0,1.000,1.000,1.000,-90.00,180.00,-22.50,CLOSED,0
655402.562,0,0,0,1.000,1.000,1.000,-90.00,180.00,-22.50,CLOSED,0
655402.566,0,0,0,1.000,1.000,1.000,-90.00,180.00,-22.50,CLOSED,0
655402.570,0,0,0,1.000,1.000,1.000,-90.00,180.00,-22.50,CLOSED,0
655402.574,0,0,0,1.000,1.000,1.000,-90.00,180.00,-22.50,CLOSED,0
655402.577,0,0,0,1.000,1.000,1.000,-90.00,180.00,-22.50,CLOSED,0
655402.581,0,0,0,1.000,1.000,1.000,-90.00,180.00,-22.50,CLOSED,0
655402.584,0,0,0,1.000,1.000,1.000,-90.00,180.00,-22.50,CLOSED,0
655402.589,0,0,0,1.000,1.000,1.000,-90.00,180.00,-22.50,CLOSED,0
655402.593,0,0,0,1.000,1.000,1.000,-90.00,180.00,-22.50,CLOSED,0
655402.596,0,0,0,1.000,1.000,1.000,-90.00,180.00,-22.50,CLOSED,0
655402.600,0,0,0,1.000,1.000,1.000,-90.00,180.00,-22.50,CLOSED,0
655402.604,0,0,0,1.000,1.000,1.000,-90.00,180.00,-22.50,CLOSED,0
655402.608,0,0,0,1.000,1.000,1.000,-90.00,180.00,-22.50,CLOSED,0
655402.612,0,0,0,1.000,1.000,1.000,-90.00,180.00,-22.50,CLOSED,0
655402.615,0,0,0,1.000,1.000,1.000,-90.00,180.00,-22.50,CLOSED,0
655402.620,0,0,0,1.000,1.000,1.000,-90.00,180.00,-22.50,CLOSED,0
655402.624,0,0,0,1.000,1.000,1.000,-90.00,180.00,-22.50,CLOSED,0
655402.629,0,0,0,1.000,1.000,1.000,-90.00,180.00,-22.50,CLOSED,0
655402.633,0,0,0,1.000,1.000,1.000,-90.00,180.00,-22.50,CLOSED,0
655402.636,0,0,0,1.000,1.000,1.000,-90.00,180.00,-22.50,CLOSED,0
655402.640,0,0,0,1.000,1.000,1.000,-90.00,180.00,-22.50,CLOSED,0
655402.644,0,0,0,1.000,1.000,1.000,-90.00,180.00,-22.50,CLOSED,0
655402.648,0,0,0,1.000,1.000,1.000,-90.00,180.00,-22.50,CLOSED,0
655402.652,0,0,0,1.000,1.000,1.000,-90.00,180.00,-22.50,CLOSED,0
655402.656,0,0,0,1.000,1.000,1.000,-90.00,180.00,-22.50,CLOSED,0
655402.660,0,0,0,1.000,1.000,1.000,-90.00,180.00,-22.50,CLOSED,0
655402.665,0,0,0,1.000,1.000,1.000,-90.00,180.00,-22.50,CLOSED,0
655402.668,0,0,0,1.000,1.000,1.000,-90.00,180.00,-22.50,CLOSED,0
655402.673,0,0,0,1.000,1.000,1.000,-90.00,180.00,-22.50,CLOSED,0
655402.678,0,0,0,1.000,1.000,1.000,-90.00,180.00,-22.50,CLOSED,0
655402.683,0,0,0,1.000,1.000,1.000,-90.00,180.00,-22.50,CLOSED,0
655402.687,0,0,0,1.000,1.000,1.000,-90.00,180.00,-22.50,CLOSED,0
655402.691,0,0,0,1.000,1.000,1.000,-90.00,180.00,-22.50,CLOSED,0
655402.695,0,0,0,1.000,1.000,1.000,-90.00,180.00,-22.50,CLOSED,0
655402.698,0,0,0,1.000,1.000,1.000,-90.00,180.00,-22.50,CLOSED,0
655402.702,0,0,0,0.996,1.000,1.000,-90.00,180.00,-22.50,CLOSED,0
655402.706,0,0,0,0.993,1.000,1.000,-90.00,180.00,-22.50,CLOSED,0
655402.710,0,0,0,1.000,1.000,1.000,-90.00,180.00,-22.50,CLOSED,0
655402.714,0,0,0,1.000,1.000,1.000,-90.00,180.00,-22.50,CLOSED,0
655402.718,0,0,0,1.000,1.000,1.000,-90.00,180.00,-22.50,CLOSED,0
655402.722,0,0,0,1.000,1.000,1.000,-90.00,180.00,-22.50,CLOSED,0
655402.726,0,0,0,1.000,1.000,1.000,-90.00,180.00,-22.50,CLOSED,0
655402.730,0,0,0,1.000,1.000,1.000,-90.00,180.00,-22.50,CLOSED,0
655402.734,0,0,0,0.990,1.000,1.000,-90.00,180.00,-22.50,CLOSED,0
655402.737,0,0,0,0.999,1.000,1.000,-90.00,180.00,-22.50,CLOSED,0
655402.741,0,0,0,0.991,1.000,1.000,-90.00,180.00,-22.50,CLOSED,0
655402.746,0,0,0,0.992,1.000,1.000,-90.00,180.00,-22.50,CLOSED,0
655402.750,0,0,0,0.998,1.000,1.000,-90.00,180.00,-22.50,CLOSED,0
655402.754,0,0,0,1.000,1.000,1.000,-90.00,180.00,-22.50,CLOSED,0
655402.758,0,0,0,1.000,1.000,1.000,-90.00,180.00,-22.50,CLOSED,0
655402.762,0,0,0,1.000,1.000,1.000,-90.00,180.00,-22.50,CLOSED,0
655402.766,0,0,0,1.000,1.000,1.000,-90.00,180.00,-22.50,CLOSED,0
655402.770,0,0,0,1.000,1.000,1.000,-90.00,180.00,-22.50,CLOSED,0
655402.773,0,0,0,1.000,1.000,1.000,-90.00,180.00,-22.50,CLOSED,0
655402.777,0,0,0,1.000,1.000,1.000,-90.00,180.00,-22.50,CLOSED,0
655402.781,0,0,0,1.000,1.000,1.000,-90.00,180.00,-22.50,CLOSED,0
655402.784,0,0,0,1.000,1.000,1.000,-90.00,180.00,-22.50,CLOSED,0
655402.788,0,0,0,1.000,1.000,1.000,-90.00,180.00,-22.50,CLOSED,0
655402.792,0,0,0,1.000,1.000,1.000,-90.00,180.00,-22.50,CLOSED,0
655402.796,0,0,0,1.000,1.000,1.000,-90.00,180.00,-22.50,CLOSED,0
655402.800,0,0,0,1.000,1.000,1.000,-90.00,180.00,-22.50,CLOSED,0
655402.804,0,0,0,1.000,1.000,1.000,-90.00,180.00,-22.50,CLOSED,0
655402.808,0,0,0,1.000,1.000,1.000,-90.00,180.00,-22.50,CLOSED,0
655402.812,0,0,0,1.000,1.000,1.000,-90.00,180.00,-22.50,CLOSED,0
655402.816,0,0,0,1.000,1.000,1.000,-90.00,180.00,-22.50,CLOSED,0
655402.819,0,0,0,1.000,1.000,1.000,-90.00,180.00,-22.50,CLOSED,0
655402.823,0,0,0,1.000,1.000,1.000,-90.00,180.00,-22.50,CLOSED,0
655402.827,0,0,0,1.000,1.000,1.000,-90.00,180.00,-22.50,CLOSED,0
655402.831,0,0,0,1.000,1.000,1.000,-90.00,180.00,-22.50,CLOSED,0
655402.835,0,0,0,1.000,1.000,1.000,-90.00,180.00,-22.50,CLOSED,0
655402.840,0,0,0,1.000,1.000,1.000,-90.00,180.00,-22.50,CLOSED,0
655402.846,0,0,0,1.000,1.000,1.000,-90.00,180.00,-22.50,CLOSED,0
655402.852,0,0,0,1.000,1.000,1.000,-90.00,180.00,-22.50,CLOSED,0
655402.857,0,0,0,1.000,1.000,1.000,-90.00,180.00,-22.50,CLOSED,0
655402.862,0,0,0,1.000,1.000,1.000,-90.00,180.00,-22.50,CLOSED,0
655402.866,0,0,0,1.000,1.000,1.000,-90.00,180.00,-22.50,CLOSED,0
655402.870,0,0,0,1.000,1.000,1.000,-90.00,180.00,-22.50,CLOSED,0
655402.874,0,0,0,1.000,1.000,1.000,-90.00,180.00,-22.50,CLOSED,0
655402.878,0,0,0,1.000,1.000,1.000,-90.00,180.00,-22.50,CLOSED,0
655402.882,0,0,0,1.000,1.000,1.000,-90.00,180.00,-22.50,CLOSED,0
655402.886,0,0,0,1.000,1.000,1.000,-90.00,180.00,-22.50,CLOSED,0
655402.890,0,0,0,1.000,1.000,1.000,-90.00,180.00,-22.50,CLOSED,0
655402.893,0,0,0,1.000,1.000,1.000,-90.00,180.00,-22.50,CLOSED,0
655402.897,0,0,0,1.000,1.000,1.000,-90.00,180.00,-22.50,CLOSED,0
655402.900,0,0,0,1.000,1.000,1.000,-90.00,180.00,-22.50,CLOSED,0
655402.904,0,0,0,1.000,1.000,1.000,-90.00,180.00,-22.50,CLOSED,0
655402.909,0,0,0,1.000,1.000,1.000,-90.00,180.00,-22.50,CLOSED,0
655402.914,0,0,0,1.000,1.000,1.000,-90.00,180.00,-22.50,CLOSED,0
655402.919,0,0,0,1.000,1.000,1.000,-90.00,180.00,-22.50,CLOSED,0
655402.924,0,0,0,1.000,1.000,1.000,-90.00,180.00,-22.50,CLOSED,0
655402.929,0,0,0,1.000,1.000,1.000,-90.00,180.00,-22.50,CLOSED,0
655402.934,0,0,0,1.000,1.000,1.000,-90.00,180.00,-22.50,CLOSED,0
655402.939,0,0,0,1.000,1.000,1.000,-90.00,180.00,-22.50,CLOSED,0
655402.944,0,0,0,1.000,1.000,1.000,-90.00,180.00,-22.50,CLOSED,0
655402.948,0,0,0,1.000,1.000,1.000,-90.00,180.00,-22.50,CLOSED,0
655402.952,0,0,0,1.000,1.000,1.000,-90.00,180.00,-22.50,CLOSED,0
655402.956,0,0,0,1.000,1.000,1.000,-90.00,180.00,-22.50,CLOSED,0
655402.959,0,0,0,1.000,1.000,1.000,-90.00,180.00,-22.50,CLOSED,0
655402.963,0,0,0,1.000,1.000,1.000,-90.00,180.00,-22.50,CLOSED,0
655402.967,0,0,0,1.000,1.000,1.000,-90.00,180.00,-22.50,CLOSED,0
655402.972,0,0,0,1.000,1.000,1.000,-90.00,180.00,-22.50,CLOSED,0
655402.976,0,0,0,1.000,1.000,1.000,-90.00,180.00,-22.50,CLOSED,0
655402.980,0,0,0,1.000,1.000,1.000,-90.00,180.00,-22.50,CLOSED,0
655402.985,0,0,0,1.000,1.000,1.000,-90.00,180.00,-22.50,CLOSED,0
655402.990,0,0,0,1.000,1.000,1.000,-90.00,180.00,-22.50,CLOSED,0
655402.995,0,0,0,1.000,1.000,1.000,-90.00,180.00,-22.50,CLOSED,0
655402.999,0,0,0,1.000,1.000,1.000,-90.00,180.00,-22.50,CLOSED,0
655403.002,0,0,0,1.000,1.000,1.000,-90.00,180.00,-22.50,CLOSED,0
655403.006,0,0,0,1.000,1.000,1.000,-90.00,180.00,-22.50,CLOSED,0
655403.010,0,0,0,1.000,1.000,1.000,-90.00,180.00,-22.50,CLOSED,0
655403.014,0,0,0,1.000,1.000,1.000,-90.00,180.00,-22.50,CLOSED,0
655403.017,0,0,0,1.000,1.000,1.000,-90.00,180.00,-22.50,CLOSED,0
655403.021,0,0,0,1.000,1.000,1.000,-90.00,180.00,-22.50,CLOSED,0
655403.025,0,0,0,1.000,1.000,1.000,-90.00,180.00,-22.50,CLOSED,0
655403.029,0,0,0,1.000,1.000,1.000,-90.00,180.00,-22.50,CLOSED,0
655403.033,0,0,0,1.000,1.000,1.000,-90.00,180.00,-22.50,CLOSED,0
655403.036,0,0,0,1.000,1.000,1.000,-90.00,180.00,-22.50,CLOSED,0
655403.041,0,0,0,1.000,1.000,1.000,-90.00,180.00,-22.50,CLOSED,0
655403.045,0,0,0,1.000,1.000,1.000,-90.00,180.00,-22.50,CLOSED,0
655403.048,0,0,0,1.000,1.000,1.000,-90.00,180.00,-22.50,CLOSED,0
655403.052,0,0,0,1.000,1.000,1.000,-90.00,180.00,-22.50,CLOSED,0
655403.057,0,0,0,1.000,1.000,1.000,-90.00,180.00,-22.50,CLOSED,0
655403.061,0,0,0,1.000,1.000,1.000,-90.00,180.00,-22.50,CLOSED,0
655403.066,0,0,0,1.000,1.000,1.000,-90.00,180.00,-22.50,CLOSED,0
655403.071,0,0,0,1.000,1.000,1.000,-90.00,180.00,-22.50,CLOSED,0
655403.075,0,0,0,1.000,1.000,1.000,-90.00,180.00,-22.50,CLOSED,0
655403.079,0,0,0,1.000,1.000,1.000,-90.00,180.00,-22.50,CLOSED,0
655403.083,0,0,0,1.000,1.000,1.000,-90.00,180.00,-22.50,CLOSED,0
655403.088,0,0,0,1.000,1.000,1.000,-90.00,180.00,-22.50,CLOSED,0
655403.092,0,0,0,1.000,1.000,1.000,-90.00,180.00,-22.50,CLOSED,0
655403.096,0,0,0,1.000,1.000,1.000,-90.00,180.00,-22.50,CLOSED,0
655403.099,0,0,0,1.000,1.000,1.000,-90.00,180.00,-22.50,CLOSED,0
655403.103,0,0,0,1.000,1.000,1.000,-90.00,180.00,-22.50,CLOSED,0
655403.107,0,0,0,1.000,1.000,1.000,-90.00,180.00,-22.50,CLOSED,0
655403.111,0,0,0,1.000,1.000,1.000,-90.00,180.00,-22.50,CLOSED,0
655403.115,0,0,0,1.000,1.000,1.000,-90.00,180.00,-22.50,CLOSED,0
655403.120,0,0,0,1.000,1.000,1.000,-90.00,180.00,-22.50,CLOSED,0
655403.125,0,0,0,1.000,1.000,1.000,-90.00,180.00,-22.50,CLOSED,0
655403.130,0,0,0,1.000,1.000,1.000,-90.00,180.00,-22.50,CLOSED,0
655403.134,0,0,0,1.000,1.000,1.000,-90.00,180.00,-22.50,CLOSED,0
655403.138,0,0,0,1.000,1.000,1.000,-90.00,180.00,-22.50,CLOSED,0
655403.142,0,0,0,1.000,1.000,1.000,-90.00,180.00,-22.50,CLOSED,0
655403.145,0,0,0,1.000,1.000,1.000,-90.00,180.00,-22.50,CLOSED,0
655403.149,0,0,0,1.000,1.000,1.000,-90.00,180.00,-22.50,CLOSED,0
655403.153,0,0,0,1.000,1.000,1.000,-90.00,180.00,-22.50,CLOSED,0
655403.156,0,0,0,1.000,1.000,1.000,-90.00,180.00,-22.50,CLOSED,0
655403.160,0,0,0,1.000,1.000,1.000,-90.00,180.00,-22.50,CLOSED,0
655403.163,0,0,0,1.000,1.000,1.000,-90.00,180.00,-22.50,CLOSED,0
655403.167,0,0,0,1.000,1.000,1.000,-90.00,180.00,-22.50,CLOSED,0
655403.171,0,0,0,1.000,1.000,1.000,-90.00,180.00,-22.50,CLOSED,0
655403.174,0,0,0,1.000,1.000,1.000,-90.00,180.00,-22.50,CLOSED,0
655403.178,0,0,0,1.000,1.000,1.000,-90.00,180.00,-22.50,CLOSED,0
655403.182,0,0,0,1.000,1.000,1.000,-90.00,180.00,-22.50,CLOSED,0
655403.186,0,0,0,1.000,1.000,1.000,-90.00,180.00,-22.50,CLOSED,0
655403.192,0,0,0,1.000,1.000,1.000,-90.00,180.00,-22.50,CLOSED,0
655403.196,0,0,0,1.000,1.000,1.000,-90.00,180.00,-22.50,CLOSED,0
655403.200,0,0,0,1.000,1.000,1.000,-90.00,180.00,-22.50,CLOSED,0
655403.204,0,0,0,1.000,1.000,1.000,-90.00,180.00,-22.50,CLOSED,0
655403.208,0,0,0,1.000,1.000,1.000,-90.00,180.00,-22.50,CLOSED,0
655403.211,0,0,0,1.000,1.000,1.000,-90.00,180.00,-22.50,CLOSED,0
655403.215,0,0,0,1.000,1.000,1.000,-90.00,180.00,-22.50,CLOSED,0
655403.219,0,0,0,1.000,1.000,1.000,-90.00,180.00,-22.50,CLOSED,0
655403.224,0,0,0,1.000,1.000,1.000,-90.00,180.00,-22.50,CLOSED,0
655403.229,0,0,0,1.000,1.000,1.000,-90.00,180.00,-22.50,CLOSED,0
655403.234,0,0,0,1.000,1.000,1.000,-90.00,180.00,-22.50,CLOSED,0
655403.239,0,0,0,1.000,1.000,1.000,-90.00,180.00,-22.50,CLOSED,0
655403.244,0,0,0,1.000,1.000,1.000,-90.00,180.00,-22.50,CLOSED,0
655403.249,0,0,0,1.000,1.000,1.000,-90.00,180.00,-22.50,CLOSED,0
655403.253,0,0,0,1.000,1.000,1.000,-90.00,180.00,-22.50,CLOSED,0
655403.258,0,0,0,1.000,1.000,1.000,-90.00,180.00,-22.50,CLOSED,0
655403.262,0,0,0,1.000,1.000,1.000,-90.00,180.00,-22.50,CLOSED,0
655403.266,0,0,0,1.000,1.000,1.000,-90.00,180.00,-22.50,CLOSED,0
655403.271,0,0,0,1.000,1.000,1.000,-90.00,180.00,-22.50,CLOSED,0
655403.275,0,0,0,1.000,1.000,1.000,-90.00,180.00,-22.50,CLOSED,0
655403.278,0,0,0,1.000,1.000,1.000,-90.00,180.00,-22.50,CLOSED,0
655403.282,0,0,0,1.000,1.000,1.000,-90.00,180.00,-22.50,CLOSED,0
655403.286,0,0,0,1.000,0.999,1.000,-90.00,180.00,-22.50,CLOSED,0
655403.289,0,0,0,1.000,0.998,1.000,-90.00,180.00,-22.50,CLOSED,0
655403.294,0,0,0,1.000,0.994,1.000,-90.00,180.00,-22.50,CLOSED,0
655403.298,0,0,0,1.000,0.973,1.000,-90.00,180.00,-22.50,CLOSED,0
655403.302,0,0,0,1.000,0.706,1.000,-90.00,180.00,-22.50,CLOSED,0
655403.306,0,0,0,1.000,0.835,1.000,-90.00,180.00,-22.50,CLOSED,0
655403.310,0,0,0,1.000,0.947,1.000,-90.00,180.00,-22.50,CLOSED,0
655403.314,0,0,0,1.000,0.962,1.000,-90.00,180.00,-22.50,CLOSED,0
655403.318,0,0,0,1.000,0.954,1.000,-90.00,180.00,-22.50,CLOSED,0
655403.323,0,0,0,1.000,0.886,1.000,-90.00,180.00,-22.50,CLOSED,0
655403.327,0,0,0,1.000,0.583,1.000,-90.00,180.00,-22.50,CLOSED,0
655403.331,0,0,0,1.000,0.745,1.000,-90.00,180.00,-22.50,CLOSED,0
655403.336,0,0,0,1.000,0.909,1.000,-90.00,180.00,-22.50,CLOSED,0
655403.340,0,0,0,1.000,0.961,0.999,-90.00,180.00,-22.50,CLOSED,0
655403.344,0,0,0,1.000,0.986,0.998,-90.00,180.00,-22.50,CLOSED,0
655403.348,0,0,0,1.000,0.994,0.997,-90.00,180.00,-22.50,CLOSED,0
655403.352,0,0,0,1.000,0.996,0.996,-90.00,180.00,-22.50,CLOSED,0
655403.356,0,0,0,1.000,0.997,0.995,-90.00,180.00,-22.50,CLOSED,0
655403.360,0,0,0,1.000,0.998,0.995,-90.00,180.00,-22.50,CLOSED,0
655403.363,0,0,0,1.000,0.998,0.994,-90.00,180.00,-22.50,CLOSED,0
655403.367,0,0,0,1.000,0.998,0.994,-90.00,180.00,-22.50,CLOSED,0
655403.371,0,0,0,1.000,0.999,0.992,-90.00,180.00,-22.50,CLOSED,0
655403.375,0,0,0,1.000,0.999,0.987,-90.00,180.00,-22.50,CLOSED,0
655403.378,0,0,0,1.000,0.999,0.979,-90.00,180.00,-22.50,CLOSED,0
655403.382,0,0,0,1.000,0.999,0.969,-90.00,180.00,-22.50,CLOSED,0
655403.387,0,0,0,1.000,1.000,0.968,-90.00,180.00,-22.50,CLOSED,0
655403.393,0,0,0,1.000,1.000,0.970,-90.00,180.00,-22.50,CLOSED,0
655403.400,0,0,0,1.000,1.000,0.976,-90.00,180.00,-22.50,CLOSED,0
655403.406,0,0,0,1.000,1.000,0.979,-90.00,180.00,-22.50,CLOSED,0
655403.411,0,0,0,1.000,0.999,0.980,-90.00,180.00,-22.50,CLOSED,0
655403.415,0,0,0,1.000,0.999,0.982,-90.00,180.00,-22.50,CLOSED,0
655403.420,0,0,0,1.000,0.998,0.983,-90.00,180.00,-22.50,CLOSED,0
655403.424,0,0,0,1.000,0.994,0.979,-90.00,180.00,-22.50,CLOSED,0
655403.428,0,0,0,1.000,0.980,0.973,-90.00,180.00,-22.50,CLOSED,0
655403.432,0,0,0,1.000,0.943,0.951,-90.00,180.00,-22.50,CLOSED,0
655403.435,0,0,0,1.000,0.888,0.924,-90.00,180.00,-22.50,CLOSED,0
655403.439,0,0,0,1.000,0.865,0.897,-90.00,180.00,-22.50,CLOSED,0
655403.443,0,0,0,1.000,0.869,0.887,-90.00,180.00,-22.50,CLOSED,0
655403.447,0,0,0,1.000,0.854,0.901,-90.00,180.00,-22.50,CLOSED,0
655403.452,0,0,0,1.000,0.831,0.929,-90.00,180.00,-22.50,CLOSED,0
655403.456,0,0,0,1.000,0.825,0.960,-90.00,180.00,-22.50,CLOSED,0
655403.460,0,0,0,1.000,0.859,0.977,-90.00,180.00,-22.50,CLOSED,0
655403.465,0,0,0,1.000,0.906,0.988,-90.00,180.00,-22.50,CLOSED,0
655403.469,0,0,0,1.000,0.942,0.992,-90.00,180.00,-22.50,CLOSED,0
655403.473,0,0,0,1.000,0.969,0.995,-90.00,180.00,-22.50,CLOSED,0
655403.477,0,0,0,1.000,0.981,0.997,-90.00,180.00,-22.50,CLOSED,0
655403.481,0,0,0,1.000,0.989,0.998,-90.00,180.00,-22.50,CLOSED,0
655403.485,0,0,0,1.000,0.992,0.998,-90.00,180.00,-22.50,CLOSED,0
655403.488,0,0,0,1.000,0.995,0.998,-90.00,180.00,-22.50,CLOSED,0
655403.492,0,0,0,1.000,0.996,0.998,-90.00,180.00,-22.50,CLOSED,0
655403.496,0,0,0,1.000,0.997,0.998,-90.00,180.00,-22.50,CLOSED,0
655403.500,0,0,0,1.000,0.996,0.997,-90.00,180.00,-22.50,CLOSED,0
655403.503,0,0,0,1.000,0.995,0.996,-90.00,180.00,-22.50,CLOSED,0
655403.507,0,0,0,1.000,0.989,0.994,-90.00,180.00,-22.50,CLOSED,0
655403.511,0,0,0,1.000,0.962,0.989,-90.00,180.00,-22.50,CLOSED,0
655403.516,0,0,0,1.000,0.843,0.982,-90.00,180.00,-22.50,CLOSED,0
655403.522,0,0,0,1.000,0.502,0.973,-90.00,180.00,-22.50,CLOSED,0
655403.526,0,0,0,1.000,0.804,0.970,-90.00,180.00,-22.50,CLOSED,0
655403.531,0,0,0,1.000,0.892,0.972,-90.00,180.00,-22.50,CLOSED,0
655403.535,0,0,0,1.000,0.892,0.979,-90.00,180.00,-22.50,CLOSED,0
655403.540,0,0,0,1.000,0.818,0.984,-90.00,180.00,-22.50,CLOSED,0
655403.543,0,0,0,1.000,0.657,0.989,-90.00,180.00,-22.50,CLOSED,0
655403.547,0,0,0,1.000,0.515,0.990,-90.00,180.00,-22.50,CLOSED,0
655403.551,0,0,0,1.000,0.650,0.990,-90.00,180.00,-22.50,CLOSED,0
655403.555,0,0,0,1.000,0.754,0.989,-90.00,180.00,-22.50,CLOSED,0
655403.559,0,0,0,1.000,0.770,0.988,-90.00,180.00,-22.50,CLOSED,0
655403.563,0,0,0,1.000,0.735,0.985,-90.00,180.00,-22.50,CLOSED,0
655403.566,0,0,0,1.000,0.698,0.983,-90.00,180.00,-22.50,CLOSED,0
655403.570,0,0,0,1.000,0.645,0.984,-90.00,180.00,-22.50,CLOSED,0
655403.574,0,0,0,1.000,0.608,0.985,-90.00,180.00,-22.50,CLOSED,0
655403.578,0,0,0,1.000,0.618,0.989,-90.00,180.00,-22.50,CLOSED,0
655403.583,0,0,0,1.000,0.718,0.990,-90.00,180.00,-22.50,CLOSED,0
655403.587,0,0,0,1.000,0.775,0.992,-90.00,180.00,-22.50,CLOSED,0
655403.592,0,0,0,1.000,0.844,0.990,-90.00,180.00,-22.50,CLOSED,0
655403.596,0,0,0,1.000,0.898,0.991,-90.00,180.00,-22.50,CLOSED,0
655403.600,0,0,0,1.000,0.915,0.989,-90.00,180.00,-22.50,CLOSED,0
655403.604,0,0,0,1.000,0.913,0.986,-90.00,180.00,-22.50,CLOSED,0
655403.608,0,0,0,1.000,0.908,0.983,-90.00,180.00,-22.50,CLOSED,0
655403.612,0,0,0,1.000,0.883,0.972,-90.00,180.00,-22.50,CLOSED,0
655403.616,0,0,0,1.000,0.875,0.955,-90.00,180.00,-22.50,CLOSED,0
655403.620,0,0,0,1.000,0.937,0.949,-90.00,180.00,-22.50,CLOSED,0
655403.624,0,0,0,1.000,0.978,0.950,-90.00,180.00,-22.50,CLOSED,0
655403.628,0,0,0,1.000,0.992,0.962,-90.00,180.00,-22.50,CLOSED,0
655403.632,0,0,0,1.000,0.996,0.970,-90.00,180.00,-22.50,CLOSED,0
655403.635,0,0,0,1.000,0.997,0.974,-90.00,180.00,-22.50,CLOSED,0
655403.640,0,0,0,1.000,0.998,0.978,-90.00,180.00,-22.50,CLOSED,0
655403.643,0,0,0,1.000,0.998,0.979,-90.00,180.00,-22.50,CLOSED,0
655403.648,0,0,0,1.000,0.997,0.977,-90.00,180.00,-22.50,CLOSED,0
655403.652,0,0,0,1.000,0.994,0.975,-90.00,180.00,-22.50,CLOSED,0
655403.656,0,0,0,1.000,0.987,0.974,-90.00,180.00,-22.50,CLOSED,0
655403.660,0,0,0,1.000,0.955,0.970,-90.00,180.00,-22.50,CLOSED,0
655403.664,0,0,0,1.000,0.852,0.962,-90.00,180.00,-22.50,CLOSED,0
655403.668,0,0,0,1.000,0.690,0.959,-90.00,180.00,-22.50,CLOSED,0
655403.672,0,0,0,1.000,0.531,0.957,-90.00,180.00,-22.50,CLOSED,0
655403.677,0,0,0,1.000,0.596,0.954,-90.00,180.00,-22.50,CLOSED,0
655403.681,0,0,0,1.000,0.509,0.960,-90.00,180.00,-22.50,CLOSED,0
655403.685,0,0,0,1.000,0.617,0.963,-90.00,180.00,-22.50,CLOSED,0
655403.690,0,0,0,1.000,0.725,0.964,-90.00,180.00,-22.50,CLOSED,0
655403.694,0,0,0,1.000,0.760,0.968,-90.00,180.00,-22.50,CLOSED,0
655403.699,0,0,0,1.000,0.755,0.971,-90.00,180.00,-22.50,CLOSED,0
655403.703,0,0,0,1.000,0.711,0.976,-90.00,180.00,-22.50,CLOSED,0
655403.707,0,0,0,1.000,0.637,0.980,-90.00,180.00,-22.50,CLOSED,0
655403.710,0,0,0,1.000,0.555,0.980,-90.00,180.00,-22.50,CLOSED,0
655403.714,0,0,0,1.000,0.519,0.983,-90.00,180.00,-22.50,CLOSED,0
655403.718,0,0,0,1.000,0.550,0.983,-90.00,180.00,-22.50,CLOSED,0
655403.722,0,0,0,1.000,0.720,0.981,-90.00,180.00,-22.50,CLOSED,0
655403.726,0,0,0,1.000,0.863,0.972,-90.00,180.00,-22.50,CLOSED,0
655403.730,0,0,0,1.000,0.956,0.953,-90.00,180.00,-22.50,CLOSED,0
655403.734,0,0,0,1.000,0.980,0.932,-90.00,180.00,-22.50,CLOSED,0
655403.738,0,0,0,1.000,0.987,0.903,-90.00,180.00,-22.50,CLOSED,0
655403.741,0,0,0,1.000,0.988,0.892,-90.00,180.00,-22.50,CLOSED,0
655403.746,0,0,0,1.000,0.986,0.895,-90.00,180.00,-22.50,CLOSED,0
655403.750,0,0,0,1.000,0.977,0.924,-90.00,180.00,-22.50,CLOSED,0
655403.754,0,0,0,1.000,0.950,0.968,-90.00,180.00,-22.50,CLOSED,0
655403.758,0,0,0,1.000,0.926,0.987,-90.00,180.00,-22.50,CLOSED,0
655403.762,0,0,0,1.000,0.941,0.996,-90.00,180.00,-22.50,CLOSED,0
655403.766,0,0,0,1.000,0.975,0.999,-90.00,180.00,-22.50,CLOSED,0
655403.771,0,0,0,1.000,0.987,0.999,-90.00,180.00,-22.50,CLOSED,0
655403.776,0,0,0,1.000,0.995,0.999,-90.00,180.00,-22.50,CLOSED,0
655403.780,0,0,0,1.000,0.999,0.999,-90.00,180.00,-22.50,CLOSED,0
655403.784,0,0,0,1.000,1.000,0.999,-90.00,180.00,-22.50,CLOSED,0
655403.788,0,0,0,1.000,1.000,0.999,-90.00,180.00,-22.50,CLOSED,0
655403.792,0,0,0,1.000,1.000,0.999,-90.00,180.00,-22.50,CLOSED,0
655403.796,0,0,0,1.000,1.000,1.000,-90.00,180.00,-22.50,CLOSED,0
655403.800,0,0,0,1.000,1.000,1.000,-90.00,180.00,-22.50,CLOSED,0
655403.804,0,0,0,1.000,1.000,1.000,-90.00,180.00,-22.50,CLOSED,0
655403.808,0,0,0,1.000,1.000,1.000,-90.00,180.00,-22.50,CLOSED,0
655403.812,0,0,0,1.000,0.998,1.000,-90.00,180.00,-22.50,CLOSED,0
655403.816,0,0,0,0.999,0.998,1.000,-90.00,180.00,-22.50,CLOSED,0
655403.820,0,0,0,0.999,0.998,1.000,-90.00,180.00,-22.50,CLOSED,0
655403.823,0,0,0,0.999,0.999,1.000,-90.00,180.00,-22.50,CLOSED,0
655403.827,0,0,0,1.000,1.000,1.000,-90.00,180.00,-22.50,CLOSED,0
655403.832,0,0,0,1.000,1.000,1.000,-90.00,180.00,-22.50,CLOSED,0
655403.838,0,0,0,1.000,1.000,1.000,-90.00,180.00,-22.50,CLOSED,0
655403.843,0,0,0,1.000,1.000,1.000,-90.00,180.00,-22.50,CLOSED,0
655403.847,0,0,0,1.000,1.000,1.000,-90.00,180.00,-22.50,CLOSED,0
655403.851,0,0,0,1.000,1.000,1.000,-90.00,180.00,-22.50,CLOSED,0
655403.856,0,0,0,1.000,1.000,1.000,-90.00,180.00,-22.50,CLOSED,0
655403.860,0,0,0,1.000,1.000,1.000,-90.00,180.00,-22.50,CLOSED,0
655403.864,0,0,0,1.000,1.000,1.000,-90.00,180.00,-22.50,CLOSED,0
655403.868,0,0,0,1.000,1.000,1.000,-90.00,180.00,-22.50,CLOSED,0
655403.872,0,0,0,1.000,1.000,1.000,-90.00,180.00,-22.50,CLOSED,0
655403.876,0,0,0,1.000,1.000,1.000,-90.00,180.00,-22.50,CLOSED,0
655403.881,0,0,0,1.000,1.000,1.000,-90.00,180.00,-22.50,CLOSED,0
655403.885,0,0,0,1.000,1.000,1.000,-90.00,180.00,-22.50,CLOSED,0
655403.889,0,0,0,1.000,1.000,1.000,-90.00,180.00,-22.50,CLOSED,0
655403.892,0,0,0,1.000,1.000,1.000,-90.00,180.00,-22.50,CLOSED,0
655403.897,0,0,0,1.000,1.000,1.000,-90.00,180.00,-22.50,CLOSED,0
655403.901,0,0,0,1.000,1.000,1.000,-90.00,180.00,-22.50,CLOSED,0
655403.906,0,0,0,1.000,1.000,1.000,-90.00,180.00,-22.50,CLOSED,0
655403.911,0,0,0,1.000,1.000,1.000,-90.00,180.00,-22.50,CLOSED,0
655403.915,0,0,0,1.000,1.000,1.000,-90.00,180.00,-22.50,CLOSED,0
655403.921,0,0,0,1.000,1.000,1.000,-90.00,180.00,-22.50,CLOSED,0
655403.925,0,0,0,1.000,1.000,1.000,-90.00,180.00,-22.50,CLOSED,0
655403.929,0,0,0,1.000,1.000,1.000,-90.00,180.00,-22.50,CLOSED,0
655403.933,0,0,0,1.000,1.000,1.000,-90.00,180.00,-22.50,CLOSED,0
655403.937,0,0,0,1.000,1.000,1.000,-90.00,180.00,-22.50,CLOSED,0
655403.941,0,0,0,1.000,1.000,1.000,-90.00,180.00,-22.50,CLOSED,0
655403.944,0,0,0,1.000,1.000,1.000,-90.00,180.00,-22.50,CLOSED,0
655403.948,0,0,0,1.000,1.000,1.000,-90.00,180.00,-22.50,CLOSED,0
655403.953,0,0,0,1.000,1.000,1.000,-90.00,180.00,-22.50,CLOSED,0
655403.958,0,0,0,1.000,1.000,1.000,-90.00,180.00,-22.50,CLOSED,0
655403.963,0,0,0,1.000,1.000,1.000,-90.00,180.00,-22.50,CLOSED,0
655403.967,0,0,0,1.000,1.000,1.000,-90.00,180.00,-22.50,CLOSED,0
655403.971,0,0,0,1.000,1.000,1.000,-90.00,180.00,-22.50,CLOSED,0
655403.976,0,0,0,1.000,1.000,1.000,-90.00,180.00,-22.50,CLOSED,0
655403.980,0,0,0,1.000,1.000,1.000,-90.00,180.00,-22.50,CLOSED,0
655403.984,0,0,0,1.000,1.000,1.000,-90.00,180.00,-22.50,CLOSED,0
655403.988,0,0,0,1.000,1.000,1.000,-90.00,180.00,-22.50,CLOSED,0
655403.992,0,0,0,1.000,1.000,1.000,-90.00,180.00,-22.50,CLOSED,0
655403.996,0,0,0,1.000,1.000,1.000,-90.00,180.00,-22.50,CLOSED,0
655404.000,0,0,0,1.000,1.000,1.000,-90.00,180.00,-22.50,CLOSED,0
655404.004,0,0,0,1.000,1.000,1.000,-90.00,180.00,-22.50,CLOSED,0
655404.008,0,0,0,1.000,1.000,1.000,-90.00,180.00,-22.50,CLOSED,0
655404.012,0,0,0,1.000,1.000,1.000,-90.00,180.00,-22.50,CLOSED,0
655404.017,0,0,0,1.000,1.000,1.000,-90.00,180.00,-22.50,CLOSED,0
655404.021,0,0,0,1.000,1.000,1.000,-90.00,180.00,-22.50,CLOSED,0
655404.025,0,0,0,1.000,1.000,1.000,-90.00,180.00,-22.50,CLOSED,0
655404.028,0,0,0,1.000,1.000,1.000,-90.00,180.00,-22.50,CLOSED,0
655404.032,0,0,0,1.000,1.000,1.000,-90.00,180.00,-22.50,CLOSED,0
655404.036,0,0,0,1.000,1.000,1.000,-90.00,180.00,-22.50,CLOSED,0
655404.040,0,0,0,1.000,1.000,1.000,-90.00,180.00,-22.50,CLOSED,0
655404.045,0,0,0,1.000,1.000,1.000,-90.00,180.00,-22.50,CLOSED,0
655404.049,0,0,0,1.000,1.000,1.000,-90.00,180.00,-22.50,CLOSED,0
655404.053,0,0,0,1.000,1.000,1.000,-90.00,180.00,-22.50,CLOSED,0
655404.056,0,0,0,1.000,1.000,1.000,-90.00,180.00,-22.50,CLOSED,0
655404.060,0,0,0,1.000,1.000,1.000,-90.00,180.00,-22.50,CLOSED,0
655404.064,0,0,0,1.000,1.000,1.000,-90.00,180.00,-22.50,CLOSED,0
655404.069,0,0,0,1.000,1.000,1.000,-90.00,180.00,-22.50,CLOSED,0
655404.073,0,0,0,1.000,1.000,1.000,-90.00,180.00,-22.50,CLOSED,0
655404.078,0,0,0,1.000,1.000,1.000,-90.00,180.00,-22.50,CLOSED,0
655404.082,0,0,0,1.000,1.000,1.000,-90.00,180.00,-22.50,CLOSED,0
655404.085,0,0,0,1.000,1.000,1.000,-90.00,180.00,-22.50,CLOSED,0
655404.090,0,0,0,1.000,1.000,1.000,-90.00,180.00,-22.50,CLOSED,0
655404.094,0,0,0,1.000,1.000,1.000,-90.00,180.00,-22.50,CLOSED,0
655404.098,0,0,0,1.000,1.000,1.000,-90.00,180.00,-22.50,CLOSED,0
655404.102,0,0,0,1.000,1.000,1.000,-90.00,180.00,-22.50,CLOSED,0
655404.107,0,0,0,1.000,1.000,1.000,-90.00,180.00,-22.50,CLOSED,0
655404.111,0,0,0,1.000,1.000,1.000,-90.00,180.00,-22.50,CLOSED,0
655404.115,0,0,0,1.000,1.000,1.000,-90.00,180.00,-22.50,CLOSED,0
655404.119,0,0,0,1.000,1.000,1.000,-90.00,180.00,-22.50,CLOSED,0
655404.123,0,0,0,1.000,1.000,1.000,-90.00,180.00,-22.50,CLOSED,0
655404.127,0,0,0,1.000,1.000,1.000,-90.00,180.00,-22.50,CLOSED,0
655404.130,0,0,0,1.000,1.000,1.000,-90.00,180.00,-22.50,CLOSED,0
655404.134,0,0,0,1.000,1.000,1.000,-90.00,180.00,-22.50,CLOSED,0
655404.138,0,0,0,1.000,1.000,1.000,-90.00,180.00,-22.50,CLOSED,0
655404.142,0,0,0,1.000,1.000,1.000,-90.00,180.00,-22.50,CLOSED,0
655404.147,0,0,0,1.000,1.000,1.000,-90.00,180.00,-22.50,CLOSED,0
655404.152,0,0,0,1.000,1.000,1.000,-90.00,180.00,-22.50,CLOSED,0
655404.157,0,0,0,1.000,1.000,1.000,-90.00,180.00,-22.50,CLOSED,0
655404.162,0,0,0,1.000,1.000,1.000,-90.00,180.00,-22.50,CLOSED,0
655404.167,0,0,0,1.000,1.000,1.000,-90.00,180.00,-22.50,CLOSED,0
655404.172,0,0,0,1.000,1.000,1.000,-90.00,180.00,-22.50,CLOSED,0
655404.176,0,0,0,1.000,1.000,1.000,-90.00,180.00,-22.50,CLOSED,0
655404.181,0,0,0,1.000,1.000,1.000,-90.00,180.00,-22.50,CLOSED,0
655404.185,0,0,0,1.000,1.000,1.000,-90.00,180.00,-22.50,CLOSED,0
655404.188,0,0,0,1.000,1.000,1.000,-90.00,180.00,-22.50,CLOSED,0
655404.192,0,0,0,1.000,1.000,1.000,-90.00,180.00,-22.50,CLOSED,0
655404.197,0,0,0,1.000,1.000,1.000,-90.00,180.00,-22.50,CLOSED,0
655404.201,0,0,0,1.000,1.000,1.000,-90.00,180.00,-22.50,CLOSED,0
655404.204,0,0,0,1.000,1.000,1.000,-90.00,180.00,-22.50,CLOSED,0
655404.208,0,0,0,1.000,1.000,1.000,-90.00,180.00,-22.50,CLOSED,0
655404.212,0,0,0,1.000,1.000,1.000,-90.00,180.00,-22.50,CLOSED,0
655404.216,0,0,0,1.000,1.000,1.000,-90.00,180.00,-22.50,CLOSED,0
655404.220,0,0,0,1.000,1.000,1.000,-90.00,180.00,-22.50,CLOSED,0
655404.224,0,0,0,1.000,1.000,1.000,-90.00,180.00,-22.50,CLOSED,0
655404.228,0,0,0,1.000,1.000,1.000,-90.00,180.00,-22.50,CLOSED,0
655404.232,0,0,0,1.000,1.000,1.000,-90.00,180.00,-22.50,CLOSED,0
655404.236,0,0,0,1.000,1.000,1.000,-90.00,180.00,-22.50,CLOSED,0
655404.240,0,0,0,1.000,1.000,1.000,-90.00,180.00,-22.50,CLOSED,0
655404.243,0,0,0,1.000,1.000,1.000,-90.00,180.00,-22.50,CLOSED,0
655404.247,0,0,0,1.000,1.000,1.000,-90.00,180.00,-22.50,CLOSED,0
655404.250,0,0,0,1.000,1.000,1.000,-90.00,180.00,-22.50,CLOSED,0
655404.254,0,0,0,1.000,1.000,1.000,-90.00,180.00,-22.50,CLOSED,0
655404.258,0,0,0,1.000,1.000,1.000,-90.00,180.00,-22.50,CLOSED,0
655404.262,0,0,0,1.000,1.000,1.000,-90.00,180.00,-22.50,CLOSED,0
655404.266,0,0,0,1.000,1.000,1.000,-90.00,180.00,-22.50,CLOSED,0
655404.270,0,0,0,1.000,1.000,1.000,-90.00,180.00,-22.50,CLOSED,0
655404.274,0,0,0,1.000,1.000,1.000,-90.00,180.00,-22.50,CLOSED,0
655404.278,0,0,0,1.000,1.000,1.000,-90.00,180.00,-22.50,CLOSED,0
655404.282,0,0,0,1.000,1.000,1.000,-90.00,180.00,-22.50,CLOSED,0
655404.286,0,0,0,1.000,1.000,1.000,-90.00,180.00,-22.50,CLOSED,0
655404.290,0,0,0,1.000,1.000,1.000,-90.00,180.00,-22.50,CLOSED,0
655404.294,0,0,0,1.000,1.000,1.000,-90.00,180.00,-22.50,CLOSED,0
655404.298,0,0,0,1.000,1.000,1.000,-90.00,180.00,-22.50,CLOSED,0
655404.303,0,0,0,1.000,1.000,1.000,-90.00,180.00,-22.50,CLOSED,0
655404.307,0,0,0,1.000,1.000,1.000,-90.00,180.00,-22.50,CLOSED,0
655404.312,0,0,0,1.000,1.000,1.000,-90.00,180.00,-22.50,CLOSED,0
655404.315,0,0,0,1.000,1.000,1.000,-90.00,180.00,-22.50,CLOSED,0
655404.319,0,0,0,1.000,1.000,1.000,-90.00,180.00,-22.50,CLOSED,0
655404.323,0,0,0,1.000,1.000,1.000,-90.00,180.00,-22.50,CLOSED,0
655404.327,0,0,0,1.000,1.000,1.000,-90.00,180.00,-22.50,CLOSED,0
655404.332,0,0,0,1.000,1.000,1.000,-90.00,180.00,-22.50,CLOSED,0
655404.336,0,0,0,1.000,1.000,1.000,-90.00,180.00,-22.50,CLOSED,0
655404.342,0,0,0,1.000,1.000,1.000,-90.00,180.00,-22.50,CLOSED,0
655404.346,0,0,0,1.000,1.000,1.000,-90.00,180.00,-22.50,CLOSED,0
655404.350,0,0,0,1.000,1.000,1.000,-90.00,180.00,-22.50,CLOSED,0
655404.355,0,0,0,1.000,1.000,1.000,-90.00,180.00,-22.50,CLOSED,0
655404.359,0,0,0,1.000,1.000,1.000,-90.00,180.00,-22.50,CLOSED,0
655404.363,0,0,0,1.000,1.000,1.000,-90.00,180.00,-22.50,CLOSED,0
655404.367,0,0,0,1.000,1.000,1.000,-90.00,180.00,-22.50,CLOSED,0
655404.371,0,0,0,1.000,1.000,1.000,-90.00,180.00,-22.50,CLOSED,0
655404.375,0,0,0,1.000,1.000,1.000,-90.00,180.00,-22.50,CLOSED,0
655404.378,0,0,0,1.000,1.000,1.000,-90.00,180.00,-22.50,CLOSED,0
655404.382,0,0,0,1.000,1.000,1.000,-90.00,180.00,-22.50,CLOSED,0
655404.386,0,0,0,1.000,1.000,1.000,-90.00,180.00,-22.50,CLOSED,0
655404.390,0,0,0,1.000,1.000,1.000,-90.00,180.00,-22.50,CLOSED,0
655404.394,0,0,0,1.000,1.000,1.000,-90.00,180.00,-22.50,CLOSED,0
655404.398,0,0,0,1.000,1.000,1.000,-90.00,180.00,-22.50,CLOSED,0
655404.403,0,0,0,1.000,1.000,1.000,-90.00,180.00,-22.50,CLOSED,0
655404.407,0,0,0,1.000,1.000,1.000,-90.00,180.00,-22.50,CLOSED,0
655404.412,0,0,0,0.999,1.000,1.000,-90.00,180.00,-22.50,CLOSED,0
655404.416,0,0,0,0.992,1.000,1.000,-90.00,180.00,-22.50,CLOSED,0
655404.421,0,0,0,0.991,1.000,1.000,-90.00,180.00,-22.50,CLOSED,0
655404.425,0,0,0,0.997,1.000,1.000,-90.00,180.00,-22.50,CLOSED,0
655404.429,0,0,0,0.992,1.000,1.000,-90.00,180.00,-22.50,CLOSED,0
655404.432,0,0,0,0.989,1.000,1.000,-90.00,180.00,-22.50,CLOSED,0
655404.436,0,0,0,0.995,1.000,1.000,-90.00,180.00,-22.50,CLOSED,0
655404.440,0,0,0,0.987,1.000,1.000,-90.00,180.00,-22.50,CLOSED,0
655404.444,0,0,0,0.986,1.000,1.000,-90.00,180.00,-22.50,CLOSED,0
655404.448,0,0,0,0.989,1.000,1.000,-90.00,180.00,-22.50,CLOSED,0
655404.452,0,0,0,0.998,0.999,1.000,-90.00,180.00,-22.50,CLOSED,0
655404.456,0,0,0,0.999,0.950,1.000,-90.00,180.00,-22.50,CLOSED,0
655404.460,0,0,0,0.999,0.765,1.000,-90.00,180.00,-22.50,CLOSED,0
655404.464,0,0,0,0.995,0.989,1.000,-90.00,180.00,-22.50,CLOSED,0
655404.468,0,0,0,0.985,0.999,1.000,-90.00,180.00,-22.50,CLOSED,0
655404.472,0,0,0,0.989,1.000,1.000,-90.00,180.00,-22.50,CLOSED,0
655404.476,0,0,0,0.994,1.000,1.000,-90.00,180.00,-22.50,CLOSED,0
655404.481,0,0,0,0.997,1.000,1.000,-90.00,180.00,-22.50,CLOSED,0
655404.485,0,0,0,0.999,1.000,1.000,-90.00,180.00,-22.50,CLOSED,0
655404.489,0,0,0,0.999,1.000,1.000,-90.00,180.00,-22.50,CLOSED,0
655404.494,0,0,0,0.996,1.000,1.000,-90.00,180.00,-22.50,CLOSED,0
655404.500,0,0,0,0.999,1.000,1.000,-90.00,180.00,-22.50,CLOSED,0
655404.505,0,0,0,1.000,1.000,1.000,-90.00,180.00,-22.50,CLOSED,0
655404.510,0,1,0,1.000,1.000,1.000,-90.00,90.00,-22.50,CLOSED,1
655404.515,0,1,0,1.000,1.000,0.999,-90.00,90.00,-22.50,CLOSED,0
655404.521,0,1,0,1.000,1.000,0.998,-90.00,90.00,-22.50,CLOSED,0
655404.525,0,1,0,1.000,1.000,0.996,-90.00,90.00,-22.50,CLOSED,0
655404.530,0,1,0,1.000,1.000,0.994,-90.00,90.00,-22.50,CLOSED,0
655404.534,0,1,0,1.000,1.000,0.993,-90.00,90.00,-22.50,CLOSED,0
655404.537,0,1,0,1.000,1.000,0.992,-90.00,90.00,-22.50,CLOSED,0
655404.541,0,1,0,1.000,1.000,0.990,-90.00,90.00,-22.50,CLOSED,0
655404.546,0,1,0,1.000,1.000,0.988,-90.00,90.00,-22.50,CLOSED,0
655404.549,0,1,0,1.000,1.000,0.987,-90.00,90.00,-22.50,CLOSED,0
655404.553,0,1,0,1.000,1.000,0.986,-90.00,90.00,-22.50,CLOSED,0
655404.558,0,1,0,1.000,1.000,0.986,-90.00,90.00,-22.50,CLOSED,0
655404.563,0,1,0,1.000,1.000,0.989,-90.00,90.00,-22.50,CLOSED,0
655404.569,0,1,0,1.000,1.000,0.991,-90.00,90.00,-22.50,CLOSED,0
655404.575,0,1,0,1.000,1.000,0.993,-90.00,90.00,-22.50,CLOSED,0
655404.581,0,1,0,1.000,0.999,0.994,-90.00,90.00,-22.50,CLOSED,0
655404.586,0,1,0,1.000,0.999,0.994,-90.00,90.00,-22.50,CLOSED,0
655404.591,0,1,0,1.000,0.999,0.994,-90.00,90.00,-22.50,CLOSED,0
655404.595,0,1,0,1.000,0.999,0.994,-90.00,90.00,-22.50,CLOSED,0
655404.599,0,1,0,1.000,0.999,0.993,-90.00,90.00,-22.50,CLOSED,0
655404.603,0,1,0,1.000,0.999,0.993,-90.00,90.00,-22.50,CLOSED,0
655404.607,0,1,0,1.000,0.999,0.991,-90.00,90.00,-22.50,CLOSED,0
655404.611,0,1,0,1.000,0.999,0.989,-90.00,90.00,-22.50,CLOSED,0
655404.615,0,1,0,1.000,1.000,0.989,-90.00,90.00,-22.50,CLOSED,0
655404.619,0,1,0,1.000,1.000,0.988,-90.00,90.00,-22.50,CLOSED,0
655404.622,0,1,0,1.000,1.000,0.991,-90.00,90.00,-22.50,CLOSED,0
655404.627,0,1,0,1.000,1.000,0.995,-90.00,90.00,-22.50,CLOSED,0
655404.633,0,1,0,1.000,1.000,0.997,-90.00,90.00,-22.50,CLOSED,0
655404.639,0,1,0,1.000,1.000,0.998,-90.00,90.00,-22.50,CLOSED,0
655404.645,0,1,0,1.000,1.000,0.999,-90.00,90.00,-22.50,CLOSED,0
655404.649,0,1,0,1.000,1.000,0.999,-90.00,90.00,-22.50,CLOSED,0
655404.655,0,1,0,1.000,1.000,0.999,-90.00,90.00,-22.50,CLOSED,0
655404.659,0,1,0,1.000,1.000,0.999,-90.00,90.00,-22.50,CLOSED,0
655404.664,0,1,0,1.000,1.000,0.999,-90.00,90.00,-22.50,CLOSED,0
655404.668,0,1,0,1.000,1.000,0.998,-90.00,90.00,-22.50,CLOSED,0
655404.672,0,1,0,1.000,1.000,0.997,-90.00,90.00,-22.50,CLOSED,0
655404.676,0,1,0,1.000,1.000,0.994,-90.00,90.00,-22.50,CLOSED,0
655404.680,0,1,0,1.000,0.999,0.988,-90.00,90.00,-22.50,CLOSED,0
655404.684,0,1,0,1.000,0.999,0.982,-90.00,90.00,-22.50,CLOSED,0
655404.688,0,1,0,1.000,0.998,0.985,-90.00,90.00,-22.50,CLOSED,0
655404.692,0,1,0,1.000,0.997,0.991,-90.00,90.00,-22.50,CLOSED,0
655404.696,0,1,0,1.000,0.997,0.995,-90.00,90.00,-22.50,CLOSED,0
655404.700,0,1,0,1.000,0.996,0.997,-90.00,90.00,-22.50,CLOSED,0
655404.704,0,1,0,1.000,0.995,0.998,-90.00,90.00,-22.50,CLOSED,0
655404.709,0,1,0,1.000,0.996,0.999,-90.00,90.00,-22.50,CLOSED,0
655404.713,0,1,0,1.000,0.997,0.998,-90.00,90.00,-22.50,CLOSED,0
655404.718,0,1,0,1.000,0.997,0.998,-90.00,90.00,-22.50,CLOSED,0
655404.722,0,1,0,1.000,0.998,0.997,-90.00,90.00,-22.50,CLOSED,0
655404.727,0,1,0,1.000,0.998,0.994,-90.00,90.00,-22.50,CLOSED,0
655404.731,0,1,0,1.000,0.999,0.988,-90.00,90.00,-22.50,CLOSED,0
655404.735,0,1,0,1.000,0.999,0.979,-90.00,90.00,-22.50,CLOSED,0
655404.739,0,1,0,1.000,0.999,0.976,-90.00,90.00,-22.50,CLOSED,0
655404.743,0,1,0,1.000,0.999,0.981,-90.00,90.00,-22.50,CLOSED,0
655404.746,0,1,0,1.000,0.999,0.984,-90.00,90.00,-22.50,CLOSED,0
655404.750,0,1,0,1.000,0.998,0.988,-90.00,90.00,-22.50,CLOSED,0
655404.754,0,1,0,1.000,0.998,0.993,-90.00,90.00,-22.50,CLOSED,0
655404.758,0,1,0,1.000,0.998,0.995,-90.00,90.00,-22.50,CLOSED,0
655404.762,0,1,0,1.000,0.998,0.997,-90.00,90.00,-22.50,CLOSED,0
655404.766,0,1,0,1.000,0.999,0.998,-90.00,90.00,-22.50,CLOSED,0
655404.771,0,1,0,1.000,0.999,0.998,-90.00,90.00,-22.50,CLOSED,0
655404.776,0,1,0,1.000,0.999,0.999,-90.00,90.00,-22.50,CLOSED,0
655404.781,0,1,0,1.000,0.999,0.999,-90.00,90.00,-22.50,CLOSED,0
655404.786,0,1,0,1.000,1.000,0.999,-90.00,90.00,-22.50,CLOSED,0
655404.791,0,1,0,1.000,1.000,0.998,-90.00,90.00,-22.50,CLOSED,0
655404.796,0,1,0,1.000,1.000,0.998,-90.00,90.00,-22.50,CLOSED,0
655404.801,0,1,0,1.000,1.000,0.998,-90.00,90.00,-22.50,CLOSED,0
655404.806,0,1,0,1.000,1.000,0.999,-90.00,90.00,-22.50,CLOSED,0
655404.810,0,1,0,1.000,1.000,0.999,-90.00,90.00,-22.50,CLOSED,0
655404.815,0,1,0,1.000,1.000,1.000,-90.00,90.00,-22.50,CLOSED,0
655404.819,0,1,0,1.000,1.000,1.000,-90.00,90.00,-22.50,CLOSED,0
655404.823,0,1,0,1.000,1.000,1.000,-90.00,90.00,-22.50,CLOSED,0
655404.827,0,1,0,1.000,1.000,1.000,-90.00,90.00,-22.50,CLOSED,0
655404.831,0,1,0,1.000,1.000,1.000,-90.00,90.00,-22.50,CLOSED,0
655404.835,0,1,0,1.000,1.000,1.000,-90.00,90.00,-22.50,CLOSED,0
655404.839,0,1,0,1.000,1.000,1.000,-90.00,90.00,-22.50,CLOSED,0
655404.842,0,1,0,1.000,1.000,1.000,-90.00,90.00,-22.50,CLOSED,0
655404.846,0,1,0,1.000,1.000,1.000,-90.00,90.00,-22.50,CLOSED,0
655404.850,0,1,0,1.000,1.000,1.000,-90.00,90.00,-22.50,CLOSED,0
655404.856,0,1,0,1.000,1.000,0.999,-90.00,90.00,-22.50,CLOSED,0
655404.860,0,1,0,1.000,1.000,0.999,-90.00,90.00,-22.50,CLOSED,0
655404.864,0,1,0,1.000,1.000,0.999,-90.00,90.00,-22.50,CLOSED,0
655404.868,0,1,0,1.000,1.000,0.999,-90.00,90.00,-22.50,CLOSED,0
655404.873,0,1,0,1.000,1.000,0.999,-90.00,90.00,-22.50,CLOSED,0
655404.878,0,1,0,1.000,1.000,0.999,-90.00,90.00,-22.50,CLOSED,0
655404.883,0,1,0,1.000,1.000,0.999,-90.00,90.00,-22.50,CLOSED,0
655404.887,0,1,0,1.000,1.000,0.999,-90.00,90.00,-22.50,CLOSED,0
655404.891,0,1,0,1.000,1.000,0.999,-90.00,90.00,-22.50,CLOSED,0
655404.895,0,1,0,1.000,1.000,0.999,-90.00,90.00,-22.50,CLOSED,0
655404.899,0,1,0,1.000,1.000,0.998,-90.00,90.00,-22.50,CLOSED,0
655404.903,0,1,0,1.000,1.000,0.996,-90.00,90.00,-22.50,CLOSED,0
655404.907,0,1,0,1.000,0.999,0.992,-90.00,90.00,-22.50,CLOSED,0
655404.911,0,1,0,1.000,0.998,0.985,-90.00,90.00,-22.50,CLOSED,0
655404.914,0,1,0,1.000,0.988,0.978,-90.00,90.00,-22.50,CLOSED,0
655404.918,0,1,0,1.000,0.924,0.974,-90.00,90.00,-22.50,CLOSED,0
655404.922,0,1,0,1.000,0.623,0.976,-90.00,90.00,-22.50,CLOSED,0
655404.926,0,1,0,1.000,0.959,0.989,-90.00,90.00,-22.50,CLOSED,0
655404.930,0,1,0,1.000,0.995,0.995,-90.00,90.00,-22.50,CLOSED,0
655404.934,0,1,0,1.000,0.999,0.996,-90.00,90.00,-22.50,CLOSED,0
655404.938,0,1,0,1.000,1.000,0.998,-90.00,90.00,-22.50,CLOSED,0
655404.942,0,1,0,1.000,1.000,0.998,-90.00,90.00,-22.50,CLOSED,0
655404.946,0,1,0,1.000,1.000,0.999,-90.00,90.00,-22.50,CLOSED,0
655404.949,0,1,0,1.000,1.000,0.999,-90.00,90.00,-22.50,CLOSED,0
655404.953,0,1,0,1.000,1.000,0.999,-90.00,90.00,-22.50,CLOSED,0
655404.957,0,1,0,1.000,0.999,1.000,-90.00,90.00,-22.50,CLOSED,0
655404.960,0,1,0,1.000,0.999,1.000,-90.00,90.00,-22.50,CLOSED,0
655404.964,0,0,0,1.000,0.998,1.000,-90.00,180.00,-22.50,CLOSED,1
655404.968,0,0,0,1.000,0.996,1.000,-90.00,180.00,-22.50,CLOSED,0
655404.971,0,0,0,0.999,0.994,1.000,-90.00,180.00,-22.50,CLOSED,0
655404.975,0,0,0,0.999,0.986,1.000,-90.00,180.00,-22.50,CLOSED,0
655404.980,0,0,0,0.999,0.981,1.000,-90.00,180.00,-22.50,CLOSED,0
655404.986,0,0,0,0.999,0.985,1.000,-90.00,180.00,-22.50,CLOSED,0
655404.992,0,0,0,0.999,0.996,1.000,-90.00,180.00,-22.50,CLOSED,0
655404.997,0,0,0,0.997,0.996,1.000,-90.00,180.00,-22.50,CLOSED,0
655405.001,0,0,0,0.997,1.000,1.000,-90.00,180.00,-22.50,CLOSED,0
655405.006,0,0,0,0.994,1.000,1.000,-90.00,180.00,-22.50,CLOSED,0
655405.011,0,0,0,0.998,1.000,1.000,-90.00,180.00,-22.50,CLOSED,0
655405.015,0,0,0,0.999,1.000,1.000,-90.00,180.00,-22.50,CLOSED,0
655405.020,0,0,0,1.000,1.000,1.000,-90.00,180.00,-22.50,CLOSED,0
655405.024,0,0,0,1.000,1.000,1.000,-90.00,180.00,-22.50,CLOSED,0
655405.029,0,0,0,1.000,1.000,1.000,-90.00,180.00,-22.50,CLOSED,0
655405.032,0,0,0,1.000,1.000,1.000,-90.00,180.00,-22.50,CLOSED,0
655405.036,0,0,0,0.999,1.000,1.000,-90.00,180.00,-22.50,CLOSED,0
655405.040,0,0,0,1.000,1.000,1.000,-90.00,180.00,-22.50,CLOSED,0
655405.044,0,0,0,1.000,1.000,1.000,-90.00,180.00,-22.50,CLOSED,0
655405.048,0,0,0,1.000,1.000,1.000,-90.00,180.00,-22.50,CLOSED,0
655405.052,0,0,0,1.000,1.000,1.000,-90.00,180.00,-22.50,CLOSED,0
655405.056,0,0,0,1.000,1.000,1.000,-90.00,180.00,-22.50,CLOSED,0
655405.060,0,0,0,1.000,1.000,1.000,-90.00,180.00,-22.50,CLOSED,0
655405.065,0,0,0,1.000,1.000,1.000,-90.00,180.00,-22.50,CLOSED,0
655405.069,0,0,0,1.000,1.000,1.000,-90.00,180.00,-22.50,CLOSED,0
655405.074,0,0,0,1.000,1.000,1.000,-90.00,180.00,-22.50,CLOSED,0
655405.078,0,0,0,1.000,1.000,1.000,-90.00,180.00,-22.50,CLOSED,0
655405.082,0,0,0,1.000,1.000,1.000,-90.00,180.00,-22.50,CLOSED,0
655405.085,0,0,0,1.000,1.000,1.000,-90.00,180.00,-22.50,CLOSED,0
655405.089,0,0,0,1.000,1.000,1.000,-90.00,180.00,-22.50,CLOSED,0
655405.093,0,0,0,1.000,1.000,1.000,-90.00,180.00,-22.50,CLOSED,0
655405.096,0,0,0,1.000,1.000,1.000,-90.00,180.00,-22.50,CLOSED,0
655405.100,0,0,0,1.000,1.000,1.000,-90.00,180.00,-22.50,CLOSED,0
655405.103,0,0,0,1.000,1.000,1.000,-90.00,180.00,-22.50,CLOSED,0
655405.107,0,0,0,1.000,1.000,1.000,-90.00,180.00,-22.50,CLOSED,0
655405.112,0,0,0,1.000,1.000,1.000,-90.00,180.00,-22.50,CLOSED,0
655405.115,0,0,0,1.000,1.000,1.000,-90.00,180.00,-22.50,CLOSED,0
655405.120,0,0,0,1.000,1.000,1.000,-90.00,180.00,-22.50,CLOSED,0
655405.123,0,0,0,1.000,1.000,1.000,-90.00,180.00,-22.50,CLOSED,0
655405.127,0,0,0,1.000,1.000,1.000,-90.00,180.00,-22.50,CLOSED,0
655405.131,0,0,0,1.000,1.000,1.000,-90.00,180.00,-22.50,CLOSED,0
655405.134,0,0,0,1.000,1.000,1.000,-90.00,180.00,-22.50,CLOSED,0
655405.138,0,0,0,1.000,1.000,1.000,-90.00,180.00,-22.50,CLOSED,0
655405.143,0,0,0,1.000,1.000,1.000,-90.00,180.00,-22.50,CLOSED,0
655405.148,0,0,0,1.000,1.000,1.000,-90.00,180.00,-22.50,CLOSED,0
655405.153,0,0,0,1.000,1.000,1.000,-90.00,180.00,-22.50,CLOSED,0
655405.158,0,0,0,1.000,1.000,1.000,-90.00,180.00,-22.50,CLOSED,0
655405.162,0,0,0,1.000,1.000,1.000,-90.00,180.00,-22.50,CLOSED,0
655405.167,0,0,0,1.000,1.000,1.000,-90.00,180.00,-22.50,CLOSED,0
655405.171,0,0,0,1.000,1.000,1.000,-90.00,180.00,-22.50,CLOSED,0
655405.175,0,0,0,1.000,1.000,1.000,-90.00,180.00,-22.50,CLOSED,0
655405.179,0,0,0,1.000,1.000,1.000,-90.00,180.00,-22.50,CLOSED,0
655405.182,0,0,0,1.000,1.000,1.000,-90.00,180.00,-22.50,CLOSED,0
655405.186,0,0,0,1.000,1.000,1.000,-90.00,180.00,-22.50,CLOSED,0
655405.190,0,0,0,1.000,1.000,1.000,-90.00,180.00,-22.50,CLOSED,0
655405.194,0,0,0,1.000,1.000,1.000,-90.00,180.00,-22.50,CLOSED,0
655405.199,0,0,0,1.000,1.000,1.000,-90.00,180.00,-22.50,CLOSED,0
655405.203,0,0,0,1.000,1.000,1.000,-90.00,180.00,-22.50,CLOSED,0
655405.207,0,0,0,1.000,1.000,1.000,-90.00,180.00,-22.50,CLOSED,0
655405.210,0,0,0,1.000,1.000,1.000,-90.00,180.00,-22.50,CLOSED,0
655405.215,0,0,0,1.000,1.000,1.000,-90.00,180.00,-22.50,CLOSED,0
655405.220,0,0,0,1.000,1.000,1.000,-90.00,180.00,-22.50,CLOSED,0
655405.224,0,0,0,1.000,1.000,1.000,-90.00,180.00,-22.50,CLOSED,0
655405.229,0,0,0,1.000,1.000,1.000,-90.00,180.00,-22.50,CLOSED,0
655405.234,0,0,0,1.000,1.000,1.000,-90.00,180.00,-22.50,CLOSED,0
655405.239,0,0,0,1.000,1.000,1.000,-90.00,180.00,-22.50,CLOSED,0
655405.243,0,0,0,1.000,1.000,1.000,-90.00,180.00,-22.50,CLOSED,0
655405.247,0,0,0,1.000,1.000,1.000,-90.00,180.00,-22.50,CLOSED,0
655405.251,0,0,0,1.000,1.000,1.000,-90.00,180.00,-22.50,CLOSED,0
655405.255,0,0,0,1.000,1.000,1.000,-90.00,180.00,-22.50,CLOSED,0
655405.259,0,0,0,1.000,1.000,1.000,-90.00,180.00,-22.50,CLOSED,0
655405.263,0,0,0,1.000,1.000,1.000,-90.00,180.00,-22.50,CLOSED,0
655405.268,0,0,0,1.000,1.000,1.000,-90.00,180.00,-22.50,CLOSED,0
655405.272,0,0,0,1.000,1.000,1.000,-90.00,180.00,-22.50,CLOSED,0
655405.276,0,0,0,1.000,1.000,1.000,-90.00,180.00,-22.50,CLOSED,0
655405.280,0,0,0,1.000,1.000,1.000,-90.00,180.00,-22.50,CLOSED,0
655405.285,0,0,0,1.000,1.000,1.000,-90.00,180.00,-22.50,CLOSED,0
655405.289,0,0,0,1.000,1.000,1.000,-90.00,180.00,-22.50,CLOSED,0
655405.293,0,0,0,1.000,1.000,1.000,-90.00,180.00,-22.50,CLOSED,0
655405.297,0,0,0,1.000,1.000,1.000,-90.00,180.00,-22.50,CLOSED,0
655405.301,0,0,0,1.000,1.000,1.000,-90.00,180.00,-22.50,CLOSED,0
655405.305,0,0,0,1.000,1.000,1.000,-90.00,180.00,-22.50,CLOSED,0
655405.309,0,0,0,1.000,1.000,1.000,-90.00,180.00,-22.50,CLOSED,0
655405.313,0,0,0,1.000,1.000,1.000,-90.00,180.00,-22.50,CLOSED,0
655405.317,0,0,0,1.000,1.000,1.000,-90.00,180.00,-22.50,CLOSED,0
655405.322,0,0,0,1.000,1.000,1.000,-90.00,180.00,-22.50,CLOSED,0
655405.326,0,0,0,1.000,1.000,1.000,-90.00,180.00,-22.50,CLOSED,0
655405.330,0,0,0,1.000,1.000,1.000,-90.00,180.00,-22.50,CLOSED,0
655405.334,0,0,0,1.000,1.000,1.000,-90.00,180.00,-22.50,CLOSED,0
655405.338,0,0,0,1.000,1.000,1.000,-90.00,180.00,-22.50,CLOSED,0
655405.341,0,0,0,1.000,1.000,1.000,-90.00,180.00,-22.50,CLOSED,0
655405.345,0,0,0,1.000,1.000,1.000,-90.00,180.00,-22.50,CLOSED,0
655405.349,0,0,0,1.000,1.000,1.000,-90.00,180.00,-22.50,CLOSED,0
655405.354,0,0,0,1.000,1.000,1.000,-90.00,180.00,-22.50,CLOSED,0
655405.359,0,0,0,1.000,1.000,1.000,-90.00,180.00,-22.50,CLOSED,0
655405.364,0,0,0,1.000,1.000,1.000,-90.00,180.00,-22.50,CLOSED,0
655405.369,0,0,0,1.000,1.000,1.000,-90.00,180.00,-22.50,CLOSED,0
655405.373,0,0,0,1.000,1.000,1.000,-90.00,180.00,-22.50,CLOSED,0
655405.378,0,0,0,1.000,1.000,1.000,-90.00,180.00,-22.50,CLOSED,0
655405.382,0,0,0,1.000,1.000,1.000,-90.00,180.00,-22.50,CLOSED,0
655405.386,0,0,0,1.000,1.000,1.000,-90.00,180.00,-22.50,CLOSED,0
655405.390,0,0,0,1.000,1.000,1.000,-90.00,180.00,-22.50,CLOSED,0
655405.394,0,0,0,1.000,1.000,1.000,-90.00,180.00,-22.50,CLOSED,0
655405.398,0,0,0,1.000,1.000,1.000,-90.00,180.00,-22.50,CLOSED,0
655405.401,0,0,0,1.000,1.000,1.000,-90.00,180.00,-22.50,CLOSED,0
655405.405,0,0,0,1.000,1.000,1.000,-90.00,180.00,-22.50,CLOSED,0
655405.409,0,0,0,1.000,1.000,1.000,-90.00,180.00,-22.50,CLOSED,0
655405.413,0,0,0,1.000,1.000,1.000,-90.00,180.00,-22.50,CLOSED,0
655405.418,0,0,0,1.000,1.000,1.000,-90.00,180.00,-22.50,CLOSED,0
655405.422,0,0,0,1.000,1.000,1.000,-90.00,180.00,-22.50,CLOSED,0
655405.426,0,0,0,1.000,1.000,1.000,-90.00,180.00,-22.50,CLOSED,0
655405.430,0,0,0,1.000,1.000,1.000,-90.00,180.00,-22.50,CLOSED,0
655405.435,0,0,0,1.000,1.000,1.000,-90.00,180.00,-22.50,CLOSED,0
655405.440,0,0,0,1.000,1.000,1.000,-90.00,180.00,-22.50,CLOSED,0
655405.445,0,0,0,1.000,1.000,1.000,-90.00,180.00,-22.50,CLOSED,0
655405.450,0,0,0,1.000,1.000,1.000,-90.00,180.00,-22.50,CLOSED,0
655405.455,0,0,0,1.000,1.000,1.000,-90.00,180.00,-22.50,CLOSED,0
655405.460,0,0,0,1.000,1.000,1.000,-90.00,180.00,-22.50,CLOSED,0
655405.464,0,0,0,1.000,1.000,1.000,-90.00,180.00,-22.50,CLOSED,0
655405.468,0,0,0,1.000,1.000,1.000,-90.00,180.00,-22.50,CLOSED,0
655405.472,0,0,0,1.000,1.000,1.000,-90.00,180.00,-22.50,CLOSED,0
655405.476,0,0,0,1.000,1.000,1.000,-90.00,180.00,-22.50,CLOSED,0
655405.479,0,0,0,1.000,1.000,1.000,-90.00,180.00,-22.50,CLOSED,0
655405.483,0,0,0,1.000,1.000,1.000,-90.00,180.00,-22.50,CLOSED,0
655405.487,0,0,0,1.000,1.000,1.000,-90.00,180.00,-22.50,CLOSED,0
655405.491,0,0,0,1.000,1.000,1.000,-90.00,180.00,-22.50,CLOSED,0
655405.495,0,0,0,1.000,1.000,1.000,-90.00,180.00,-22.50,CLOSED,0
655405.499,0,0,0,1.000,1.000,1.000,-90.00,180.00,-22.50,CLOSED,0
655405.504,0,0,0,1.000,1.000,1.000,-90.00,180.00,-22.50,CLOSED,0
655405.508,0,0,0,1.000,1.000,1.000,-90.00,180.00,-22.50,CLOSED,0
655405.512,0,0,0,1.000,1.000,1.000,-90.00,180.00,-22.50,CLOSED,0
655405.516,0,0,0,1.000,1.000,1.000,-90.00,180.00,-22.50,CLOSED,0
655405.520,0,0,0,1.000,1.000,1.000,-90.00,180.00,-22.50,CLOSED,0
655405.524,0,0,0,1.000,1.000,1.000,-90.00,180.00,-22.50,CLOSED,0
655405.528,0,0,0,1.000,1.000,1.000,-90.00,180.00,-22.50,CLOSED,0
655405.532,0,0,0,1.000,1.000,1.000,-90.00,180.00,-22.50,CLOSED,0
655405.536,0,0,0,0.999,1.000,1.000,-90.00,180.00,-22.50,CLOSED,0
655405.541,0,0,0,0.858,1.000,1.000,-90.00,180.00,-22.50,CLOSED,0
655405.544,0,0,0,0.484,1.000,1.000,-90.00,180.00,-22.50,CLOSED,0
655405.548,0,0,0,0.481,1.000,1.000,-90.00,180.00,-22.50,CLOSED,0
655405.552,0,0,0,0.604,1.000,1.000,-90.00,180.00,-22.50,CLOSED,0
655405.556,0,0,0,0.670,1.000,1.000,-90.00,180.00,-22.50,CLOSED,0
655405.561,0,0,0,0.776,1.000,1.000,-90.00,180.00,-22.50,CLOSED,0
655405.565,0,0,0,0.937,1.000,1.000,-90.00,180.00,-22.50,CLOSED,0
655405.569,0,0,0,0.997,1.000,1.000,-90.00,180.00,-22.50,CLOSED,0
655405.573,0,0,0,1.000,1.000,1.000,-90.00,180.00,-22.50,CLOSED,0
655405.577,0,0,0,1.000,1.000,1.000,-90.00,180.00,-22.50,CLOSED,0
655405.581,0,0,0,1.000,1.000,1.000,-90.00,180.00,-22.50,CLOSED,0
655405.584,0,0,0,1.000,1.000,1.000,-90.00,180.00,-22.50,CLOSED,0
655405.588,0,0,0,1.000,1.000,1.000,-90.00,180.00,-22.50,CLOSED,0
655405.592,0,0,0,1.000,1.000,1.000,-90.00,180.00,-22.50,CLOSED,0
655405.596,3,0,0,1.000,1.000,1.000,-90.00,180.00,-22.50,OPEN,0
655405.599,3,0,0,1.000,1.000,1.000,-90.00,180.00,-22.50,OPEN,0
655405.603,3,0,0,1.000,1.000,1.000,-90.00,180.00,-22.50,OPEN,0
655405.607,3,0,0,1.000,1.000,1.000,-90.00,180.00,-22.50,OPEN,0
655405.611,3,0,0,1.000,1.000,1.000,-90.00,180.00,-22.50,OPEN,0
655405.616,3,0,0,1.000,1.000,1.000,-90.00,180.00,-22.50,OPEN,0
655405.620,3,0,0,1.000,1.000,1.000,-90.00,180.00,-22.50,OPEN,0
655405.624,3,0,0,1.000,1.000,1.000,-90.00,180.00,-22.50,OPEN,0
655405.628,3,0,0,1.000,1.000,1.000,-90.00,180.00,-22.50,OPEN,0
655405.632,3,0,0,1.000,1.000,1.000,-90.00,180.00,-22.50,OPEN,0
655405.635,3,0,0,1.000,1.000,1.000,-90.00,180.00,-22.50,OPEN,0
655405.639,3,0,0,1.000,1.000,1.000,-90.00,180.00,-22.50,OPEN,0
655405.643,3,0,0,1.000,1.000,1.000,-90.00,180.00,-22.50,OPEN,0
655405.647,3,0,0,1.000,1.000,1.000,-90.00,180.00,-22.50,OPEN,0
655405.651,3,0,0,1.000,1.000,1.000,-90.00,180.00,-22.50,OPEN,0
655405.655,3,0,0,1.000,1.000,1.000,-90.00,180.00,-22.50,OPEN,0
655405.661,3,0,0,1.000,1.000,1.000,-90.00,180.00,-22.50,OPEN,0
655405.668,3,0,0,1.000,1.000,1.000,-90.00,180.00,-22.50,OPEN,0
655405.676,3,0,0,1.000,1.000,1.000,-90.00,180.00,-22.50,OPEN,0
655405.683,3,0,0,1.000,1.000,1.000,-90.00,180.00,-22.50,OPEN,0
655405.691,3,0,0,1.000,1.000,1.000,-90.00,180.00,-22.50,OPEN,0
655405.697,3,0,0,1.000,1.000,1.000,-90.00,180.00,-22.50,OPEN,0
655405.703,3,0,0,1.000,1.000,1.000,-90.00,180.00,-22.50,OPEN,0
655405.708,3,0,0,1.000,1.000,1.000,-90.00,180.00,-22.50,OPEN,0
655405.713,3,0,0,1.000,1.000,1.000,-90.00,180.00,-22.50,OPEN,0
655405.717,3,0,0,1.000,1.000,1.000,-90.00,180.00,-22.50,OPEN,0
655405.722,3,0,0,1.000,1.000,1.000,-90.00,180.00,-22.50,OPEN,0
655405.726,3,0,0,1.000,1.000,1.000,-90.00,180.00,-22.50,OPEN,0
655405.729,3,0,0,1.000,1.000,1.000,-90.00,180.00,-22.50,OPEN,0
655405.733,3,0,0,1.000,1.000,1.000,-90.00,180.00,-22.50,OPEN,0
655405.736,3,0,0,1.000,1.000,1.000,-90.00,180.00,-22.50,OPEN,0
655405.740,3,0,0,1.000,1.000,1.000,-90.00,180.00,-22.50,OPEN,0
655405.745,3,0,0,1.000,1.000,1.000,-90.00,180.00,-22.50,OPEN,0
655405.751,3,0,0,1.000,1.000,1.000,-90.00,180.00,-22.50,OPEN,0
655405.757,3,0,0,1.000,1.000,1.000,-90.00,180.00,-22.50,OPEN,0
655405.763,3,0,0,1.000,1.000,1.000,-90.00,180.00,-22.50,OPEN,0
655405.769,3,0,0,1.000,1.000,1.000,-90.00,180.00,-22.50,OPEN,0
655405.774,3,0,0,1.000,1.000,1.000,-90.00,180.00,-22.50,OPEN,0
655405.779,3,0,0,1.000,1.000,1.000,-90.00,180.00,-22.50,OPEN,0
655405.784,3,0,0,1.000,1.000,1.000,-90.00,180.00,-22.50,OPEN,0
655405.789,3,0,0,1.000,1.000,1.000,-90.00,180.00,-22.50,OPEN,0
655405.794,3,0,0,1.000,1.000,1.000,-90.00,180.00,-22.50,OPEN,0
655405.799,3,0,0,1.000,1.000,1.000,-90.00,180.00,-22.50,OPEN,0
655405.803,3,0,0,1.000,1.000,1.000,-90.00,180.00,-22.50,OPEN,0
655405.808,3,0,0,1.000,1.000,1.000,-90.00,180.00,-22.50,OPEN,0
655405.812,3,0,0,1.000,1.000,1.000,-90.00,180.00,-22.50,OPEN,0
655405.816,3,0,0,1.000,1.000,1.000,-90.00,180.00,-22.50,OPEN,0
655405.820,3,0,0,1.000,1.000,1.000,-90.00,180.00,-22.50,OPEN,0
655405.824,3,0,0,1.000,1.000,1.000,-90.00,180.00,-22.50,OPEN,0
655405.829,3,0,0,1.000,1.000,1.000,-90.00,180.00,-22.50,OPEN,0
655405.833,3,0,0,1.000,1.000,1.000,-90.00,180.00,-22.50,OPEN,0
655405.836,3,0,0,1.000,1.000,1.000,-90.00,180.00,-22.50,OPEN,0
655405.840,3,0,0,1.000,1.000,1.000,-90.00,180.00,-22.50,OPEN,0
655405.844,3,0,0,1.000,1.000,1.000,-90.00,180.00,-22.50,OPEN,0
655405.848,3,0,0,1.000,1.000,1.000,-90.00,180.00,-22.50,OPEN,0
655405.853,3,0,0,1.000,1.000,1.000,-90.00,180.00,-22.50,OPEN,0
655405.861,3,0,0,1.000,1.000,1.000,-90.00,180.00,-22.50,OPEN,0
655405.868,3,0,0,1.000,1.000,1.000,-90.00,180.00,-22.50,OPEN,0
655405.877,3,0,0,1.000,1.000,1.000,-90.00,180.00,-22.50,OPEN,0
655405.883,3,0,0,1.000,1.000,1.000,-90.00,180.00,-22.50,OPEN,0
655405.889,3,0,0,1.000,1.000,1.000,-90.00,180.00,-22.50,OPEN,0
655405.893,3,0,0,1.000,1.000,1.000,-90.00,180.00,-22.50,OPEN,0
655405.898,3,0,0,1.000,1.000,1.000,-90.00,180.00,-22.50,OPEN,0
655405.902,3,0,0,1.000,1.000,1.000,-90.00,180.00,-22.50,OPEN,0
655405.906,3,0,0,1.000,1.000,1.000,-90.00,180.00,-22.50,OPEN,0
655405.909,3,0,0,1.000,1.000,1.000,-90.00,180.00,-22.50,OPEN,0
655405.913,3,0,0,1.000,1.000,1.000,-90.00,180.00,-22.50,OPEN,0
655405.917,3,0,0,1.000,1.000,1.000,-90.00,180.00,-22.50,OPEN,0
655405.921,3,0,0,1.000,1.000,1.000,-90.00,180.00,-22.50,OPEN,0
655405.925,3,0,0,1.000,1.000,1.000,-90.00,180.00,-22.50,OPEN,0
655405.929,3,0,0,1.000,1.000,1.000,-90.00,180.00,-22.50,OPEN,0
655405.933,3,0,0,1.000,1.000,1.000,-90.00,180.00,-22.50,OPEN,0
655405.936,3,0,0,1.000,1.000,1.000,-90.00,180.00,-22.50,OPEN,0
655405.940,3,0,0,1.000,1.000,1.000,-90.00,180.00,-22.50,OPEN,0
655405.944,3,0,0,1.000,1.000,1.000,-90.00,180.00,-22.50,OPEN,0
655405.948,3,0,0,1.000,1.000,1.000,-90.00,180.00,-22.50,OPEN,0
655405.952,3,0,0,1.000,1.000,1.000,-90.00,180.00,-22.50,OPEN,0
655405.957,3,0,0,1.000,1.000,1.000,-90.00,180.00,-22.50,OPEN,0
655405.961,3,0,0,1.000,1.000,1.000,-90.00,180.00,-22.50,OPEN,0
655405.964,3,0,0,1.000,1.000,1.000,-90.00,180.00,-22.50,OPEN,0
655405.969,3,0,0,1.000,1.000,1.000,-90.00,180.00,-22.50,OPEN,0
655405.973,3,0,0,1.000,1.000,1.000,-90.00,180.00,-22.50,OPEN,0
655405.977,3,0,0,1.000,1.000,1.000,-90.00,180.00,-22.50,OPEN,0
655405.981,3,0,0,1.000,1.000,1.000,-90.00,180.00,-22.50,OPEN,0
655405.985,3,0,0,1.000,1.000,1.000,-90.00,180.00,-22.50,OPEN,0
655405.989,3,0,0,1.000,1.000,1.000,-90.00,180.00,-22.50,OPEN,0
655405.993,3,0,0,1.000,1.000,1.000,-90.00,180.00,-22.50,OPEN,0
655405.997,3,0,0,1.000,1.000,1.000,-90.00,180.00,-22.50,OPEN,0
655406.001,3,0,0,1.000,1.000,1.000,-90.00,180.00,-22.50,OPEN,0
655406.005,3,0,0,1.000,1.000,1.000,-90.00,180.00,-22.50,OPEN,0
655406.008,3,0,0,1.000,1.000,1.000,-90.00,180.00,-22.50,OPEN,0
655406.012,3,0,0,1.000,1.000,1.000,-90.00,180.00,-22.50,OPEN,0
655406.016,3,0,0,1.000,1.000,1.000,-90.00,180.00,-22.50,OPEN,0
655406.020,3,0,0,1.000,1.000,1.000,-90.00,180.00,-22.50,OPEN,0
655406.024,3,0,0,1.000,1.000,1.000,-90.00,180.00,-22.50,OPEN,0
655406.028,3,0,0,1.000,1.000,1.000,-90.00,180.00,-22.50,OPEN,0
655406.032,3,0,0,1.000,1.000,1.000,-90.00,180.00,-22.50,OPEN,0
655406.037,3,0,0,1.000,1.000,1.000,-90.00,180.00,-22.50,OPEN,0
655406.041,3,0,0,1.000,1.000,1.000,-90.00,180.00,-22.50,OPEN,0
655406.045,3,0,0,1.000,1.000,1.000,-90.00,180.00,-22.50,OPEN,0
655406.049,3,0,0,1.000,1.000,1.000,-90.00,180.00,-22.50,OPEN,0
655406.053,3,0,0,1.000,1.000,1.000,-90.00,180.00,-22.50,OPEN,0
655406.057,3,0,0,1.000,1.000,1.000,-90.00,180.00,-22.50,OPEN,0
655406.060,3,0,0,1.000,1.000,1.000,-90.00,180.00,-22.50,OPEN,0
655406.064,3,0,0,0.999,1.000,1.000,-90.00,180.00,-22.50,OPEN,0
655406.068,3,0,0,0.975,1.000,1.000,-90.00,180.00,-22.50,OPEN,0
655406.072,3,0,0,0.869,1.000,1.000,-90.00,180.00,-22.50,OPEN,0
655406.075,3,0,0,0.666,1.000,1.000,-90.00,180.00,-22.50,OPEN,0
655406.079,3,0,0,0.511,1.000,1.000,-90.00,180.00,-22.50,OPEN,0
655406.083,3,0,0,0.589,1.000,1.000,-90.00,180.00,-22.50,OPEN,0
655406.087,3,0,0,0.639,1.000,1.000,-90.00,180.00,-22.50,OPEN,0
655406.090,3,0,0,0.562,1.000,1.000,-90.00,180.00,-22.50,OPEN,0
655406.094,3,0,0,0.920,1.000,1.000,-90.00,180.00,-22.50,OPEN,0
655406.098,3,0,0,1.000,1.000,1.000,-90.00,180.00,-22.50,OPEN,0
655406.111,3,0,0,1.000,1.000,1.000,-90.00,180.00,-22.50,OPEN,0
655406.129,3,0,0,1.000,1.000,1.000,-90.00,180.00,-22.50,OPEN,0
655406.139,3,0,0,1.000,1.000,1.000,-90.00,180.00,-22.50,OPEN,0
655406.146,3,0,0,1.000,1.000,1.000,-90.00,180.00,-22.50,OPEN,0
655406.156,3,0,0,1.000,1.000,1.000,-90.00,180.00,-22.50,OPEN,0
655406.164,3,0,0,1.000,1.000,1.000,-90.00,180.00,-22.50,OPEN,0
655406.169,3,0,0,1.000,1.000,1.000,-90.00,180.00,-22.50,OPEN,0
655406.173,3,0,0,1.000,1.000,1.000,-90.00,180.00,-22.50,OPEN,0
655406.178,0,0,0,1.000,1.000,1.000,-90.00,180.00,-22.50,OPEN,0
655406.182,0,0,0,1.000,1.000,1.000,-90.00,180.00,-22.50,OPEN,0
655406.186,0,0,0,1.000,1.000,1.000,-90.00,180.00,-22.50,OPEN,0
655406.190,0,0,0,1.000,1.000,1.000,-90.00,180.00,-22.50,OPEN,0
655406.193,0,0,0,1.000,1.000,1.000,-90.00,180.00,-22.50,OPEN,0
655406.197,0,0,0,1.000,1.000,1.000,-90.00,180.00,-22.50,OPEN,0
655406.201,0,0,0,1.000,1.000,1.000,-90.00,180.00,-22.50,OPEN,0
655406.204,0,0,0,1.000,1.000,1.000,-90.00,180.00,-22.50,OPEN,0
655406.208,0,0,0,1.000,1.000,1.000,-90.00,180.00,-22.50,OPEN,0
655406.212,0,0,0,1.000,1.000,1.000,-90.00,180.00,-22.50,OPEN,0
655406.216,0,0,0,1.000,1.000,1.000,-90.00,180.00,-22.50,OPEN,0
655406.220,0,0,0,1.000,1.000,1.000,-90.00,180.00,-22.50,OPEN,0
655406.225,0,0,0,1.000,1.000,1.000,-90.00,180.00,-22.50,OPEN,0
655406.229,0,0,0,1.000,1.000,1.000,-90.00,180.00,-22.50,OPEN,0
655406.235,0,0,0,1.000,1.000,1.000,-90.00,180.00,-22.50,OPEN,0
655406.241,0,0,0,1.000,1.000,1.000,-90.00,180.00,-22.50,OPEN,0
655406.247,0,0,0,1.000,1.000,1.000,-90.00,180.00,-22.50,OPEN,0
655406.252,0,0,0,0.999,1.000,1.000,-90.00,180.00,-22.50,OPEN,0
655406.257,0,0,0,1.000,1.000,1.000,-90.00,180.00,-22.50,OPEN,0
655406.261,0,0,0,1.000,1.000,1.000,-90.00,180.00,-22.50,OPEN,0
655406.265,0,0,0,1.000,1.000,1.000,-90.00,180.00,-22.50,OPEN,0
655406.270,0,0,0,1.000,1.000,1.000,-90.00,180.00,-22.50,OPEN,0
655406.274,0,0,0,1.000,1.000,1.000,-90.00,180.00,-22.50,OPEN,0
655406.278,0,0,0,1.000,1.000,1.000,-90.00,180.00,-22.50,OPEN,0
655406.282,0,0,0,1.000,1.000,1.000,-90.00,180.00,-22.50,OPEN,0
655406.287,0,0,0,1.000,1.000,1.000,-90.00,180.00,-22.50,OPEN,0
655406.291,0,0,0,1.000,1.000,1.000,-90.00,180.00,-22.50,OPEN,0
655406.296,0,0,0,1.000,1.000,1.000,-90.00,180.00,-22.50,OPEN,0
655406.301,0,0,0,1.000,1.000,1.000,-90.00,180.00,-22.50,OPEN,0
655406.306,0,0,0,1.000,1.000,1.000,-90.00,180.00,-22.50,OPEN,0
655406.311,0,0,0,1.000,1.000,1.000,-90.00,180.00,-22.50,OPEN,0
655406.316,0,0,0,1.000,1.000,1.000,-90.00,180.00,-22.50,OPEN,0
655406.321,0,0,0,1.000,1.000,1.000,-90.00,180.00,-22.50,OPEN,0
655406.325,0,0,0,1.000,1.000,1.000,-90.00,180.00,-22.50,OPEN,0
655406.331,0,0,0,1.000,1.000,1.000,-90.00,180.00,-22.50,OPEN,0
655406.335,0,0,0,1.000,1.000,1.000,-90.00,180.00,-22.50,OPEN,0
655406.340,0,0,0,1.000,1.000,1.000,-90.00,180.00,-22.50,OPEN,0
655406.344,0,0,0,1.000,1.000,1.000,-90.00,180.00,-22.50,OPEN,0
655406.348,0,0,0,1.000,1.000,1.000,-90.00,180.00,-22.50,OPEN,0
655406.352,0,0,0,1.000,1.000,1.000,-90.00,180.00,-22.50,OPEN,0
655406.357,0,0,0,1.000,1.000,1.000,-90.00,180.00,-22.50,OPEN,0
655406.362,0,0,0,1.000,1.000,1.000,-90.00,180.00,-22.50,OPEN,0
655406.366,0,0,0,1.000,1.000,1.000,-90.00,180.00,-22.50,OPEN,0
655406.370,0,0,0,1.000,1.000,1.000,-90.00,180.00,-22.50,OPEN,0
655406.374,0,0,0,1.000,1.000,1.000,-90.00,180.00,-22.50,OPEN,0
655406.378,0,0,0,1.000,1.000,1.000,-90.00,180.00,-22.50,OPEN,0
655406.382,0,0,0,1.000,1.000,1.000,-90.00,180.00,-22.50,OPEN,0
655406.386,0,0,0,1.000,1.000,1.000,-90.00,180.00,-22.50,OPEN,0
655406.390,0,0,0,1.000,1.000,1.000,-90.00,180.00,-22.50,OPEN,0
655406.394,0,0,0,1.000,1.000,1.000,-90.00,180.00,-22.50,OPEN,0
655406.399,0,0,0,1.000,1.000,1.000,-90.00,180.00,-22.50,OPEN,0
655406.403,0,0,0,1.000,1.000,1.000,-90.00,180.00,-22.50,OPEN,0
655406.407,0,0,0,1.000,1.000,1.000,-90.00,180.00,-22.50,OPEN,0
655406.412,0,0,0,1.000,1.000,1.000,-90.00,180.00,-22.50,OPEN,0
655406.416,0,0,0,1.000,1.000,1.000,-90.00,180.00,-22.50,OPEN,0
655406.420,0,0,0,1.000,1.000,1.000,-90.00,180.00,-22.50,OPEN,0
655406.425,0,0,0,1.000,1.000,1.000,-90.00,180.00,-22.50,OPEN,0
655406.429,0,0,0,1.000,1.000,1.000,-90.00,180.00,-22.50,OPEN,0
655406.433,0,0,0,1.000,1.000,1.000,-90.00,180.00,-22.50,OPEN,0
655406.437,0,0,0,1.000,1.000,1.000,-90.00,180.00,-22.50,OPEN,0
655406.442,0,0,0,1.000,1.000,1.000,-90.00,180.00,-22.50,OPEN,0
655406.447,0,0,0,1.000,1.000,1.000,-90.00,180.00,-22.50,OPEN,0
655406.451,0,0,0,1.000,1.000,1.000,-90.00,180.00,-22.50,OPEN,0
655406.456,0,0,0,1.000,1.000,1.000,-90.00,180.00,-22.50,OPEN,0
655406.461,0,0,0,1.000,1.000,1.000,-90.00,180.00,-22.50,OPEN,0
655406.465,0,0,0,1.000,1.000,1.000,-90.00,180.00,-22.50,OPEN,0
655406.470,0,0,0,1.000,1.000,1.000,-90.00,180.00,-22.50,OPEN,0
655406.475,0,0,0,1.000,1.000,1.000,-90.00,180.00,-22.50,OPEN,0
655406.479,0,0,0,1.000,1.000,1.000,-90.00,180.00,-22.50,OPEN,0
655406.483,0,0,0,1.000,1.000,1.000,-90.00,180.00,-22.50,OPEN,0
655406.488,0,0,0,1.000,1.000,1.000,-90.00,180.00,-22.50,OPEN,0
655406.492,0,0,0,1.000,1.000,1.000,-90.00,180.00,-22.50,OPEN,0
655406.496,0,0,0,1.000,1.000,1.000,-90.00,180.00,-22.50,OPEN,0
655406.500,0,0,0,1.000,1.000,1.000,-90.00,180.00,-22.50,OPEN,0
655406.504,0,0,0,1.000,1.000,1.000,-90.00,180.00,-22.50,OPEN,0
655406.508,0,0,0,1.000,1.000,1.000,-90.00,180.00,-22.50,OPEN,0
655406.512,0,0,0,1.000,1.000,1.000,-90.00,180.00,-22.50,OPEN,0
655406.517,0,0,0,1.000,1.000,1.000,-90.00,180.00,-22.50,OPEN,0
655406.521,0,0,0,1.000,1.000,1.000,-90.00,180.00,-22.50,OPEN,0
655406.525,0,0,0,1.000,1.000,1.000,-90.00,180.00,-22.50,OPEN,0
655406.530,0,0,0,1.000,1.000,1.000,-90.00,180.00,-22.50,OPEN,0
655406.534,0,0,0,1.000,1.000,1.000,-90.00,180.00,-22.50,OPEN,0
655406.540,0,0,0,1.000,1.000,1.000,-90.00,180.00,-22.50,OPEN,0
655406.544,0,0,0,1.000,1.000,1.000,-90.00,180.00,-22.50,OPEN,0
655406.548,0,0,0,1.000,1.000,1.000,-90.00,180.00,-22.50,OPEN,0
655406.552,0,0,0,1.000,1.000,1.000,-90.00,180.00,-22.50,OPEN,0
655406.557,0,0,0,1.000,1.000,1.000,-90.00,180.00,-22.50,OPEN,0
655406.561,0,0,0,1.000,1.000,1.000,-90.00,180.00,-22.50,OPEN,0
655406.565,0,0,0,1.000,1.000,1.000,-90.00,180.00,-22.50,OPEN,0
655406.569,0,0,0,1.000,1.000,1.000,-90.00,180.00,-22.50,OPEN,0
655406.573,0,0,0,1.000,1.000,1.000,-90.00,180.00,-22.50,OPEN,0
655406.578,0,0,0,1.000,1.000,1.000,-90.00,180.00,-22.50,OPEN,0
655406.582,0,0,0,1.000,1.000,1.000,-90.00,180.00,-22.50,OPEN,0
655406.586,0,0,0,1.000,1.000,1.000,-90.00,180.00,-22.50,OPEN,0
655406.590,0,0,0,1.000,1.000,1.000,-90.00,180.00,-22.50,OPEN,0
655406.595,0,0,0,1.000,1.000,1.000,-90.00,180.00,-22.50,OPEN,0
655406.599,0,0,0,1.000,1.000,1.000,-90.00,180.00,-22.50,OPEN,0
655406.603,0,0,0,1.000,1.000,1.000,-90.00,180.00,-22.50,OPEN,0
655406.607,0,0,0,1.000,1.000,1.000,-90.00,180.00,-22.50,OPEN,0
655406.611,0,0,0,1.000,1.000,1.000,-90.00,180.00,-22.50,OPEN,0
