t,hand,elbow,shoulder,p_hand,p_elbow,p_shoulder,J2,J3,J6,grip_state,cmd_sent
667601.349,0,0,0,0.981,1.000,0.999,-90.00,180.00,0.00,OPEN,0
667601.366,0,0,0,0.997,1.000,0.999,-90.00,180.00,0.00,OPEN,0
667601.407,0,0,0,1.000,1.000,0.998,-90.00,180.00,0.00,OPEN,0
667601.456,0,0,0,1.000,1.000,0.999,-90.00,180.00,0.00,OPEN,0
667601.507,0,0,0,1.000,1.000,0.999,-90.00,180.00,0.00,OPEN,0
667601.555,0,0,0,1.000,1.000,0.999,-90.00,180.00,0.00,OPEN,0
667601.606,0,0,0,1.000,1.000,0.999,-90.00,180.00,0.00,OPEN,0
667601.656,0,0,0,1.000,1.000,0.999,-90.00,180.00,0.00,OPEN,0
667601.706,0,0,0,1.000,1.000,0.999,-90.00,180.00,0.00,OPEN,0
667601.756,0,0,0,1.000,1.000,0.999,-90.00,180.00,0.00,OPEN,0
667601.807,0,0,0,1.000,1.000,0.999,-90.00,180.00,0.00,OPEN,0
667601.856,0,0,0,1.000,1.000,0.998,-90.00,180.00,0.00,OPEN,0
667601.906,0,0,0,1.000,1.000,0.998,-90.00,180.00,0.00,OPEN,0
667601.959,1,0,0,1.000,1.000,0.998,-90.00,180.00,0.00,OPEN,0
667602.006,1,0,0,1.000,1.000,0.996,-90.00,180.00,0.00,OPEN,0
667602.056,1,0,0,1.000,1.000,0.995,-90.00,180.00,0.00,OPEN,0
667602.106,1,0,0,1.000,1.000,0.997,-90.00,180.00,0.00,OPEN,0
667602.155,1,0,0,1.000,1.000,0.996,-90.00,180.00,0.00,OPEN,0
667602.206,1,0,0,1.000,1.000,0.997,-90.00,180.00,0.00,OPEN,0
667602.256,1,0,0,1.000,1.000,0.997,-90.00,180.00,0.00,OPEN,0
667602.306,1,0,0,1.000,1.000,0.992,-90.00,180.00,0.00,OPEN,0
667602.356,1,0,0,1.000,1.000,0.988,-90.00,180.00,0.00,OPEN,0
667602.406,1,0,0,1.000,1.000,0.972,-90.00,180.00,0.00,OPEN,0
667602.456,1,0,0,1.000,1.000,0.994,-90.00,180.00,0.00,OPEN,0
667602.506,1,0,0,1.000,1.000,0.996,-90.00,180.00,0.00,OPEN,0
667602.556,1,0,0,1.000,1.000,0.993,-90.00,180.00,0.00,OPEN,0
667602.606,1,0,0,1.000,1.000,0.994,-90.00,180.00,0.00,OPEN,0
667602.656,1,0,0,1.000,1.000,0.993,-90.00,180.00,0.00,OPEN,0
667602.706,1,0,0,1.000,1.000,0.994,-90.00,180.00,0.00,OPEN,0
667602.756,1,0,0,1.000,1.000,0.985,-90.00,180.00,0.00,OPEN,0
667602.807,1,0,0,1.000,1.000,0.889,-90.00,180.00,0.00,OPEN,0
667602.858,1,0,0,1.000,1.000,0.814,-90.00,180.00,0.00,OPEN,0
667602.907,1,0,0,1.000,1.000,0.943,-90.00,180.00,0.00,OPEN,0
667602.956,1,0,0,1.000,1.000,0.984,-90.00,180.00,0.00,OPEN,0
667603.005,1,0,0,1.000,1.000,0.991,-90.00,180.00,0.00,OPEN,0
667603.055,1,0,0,1.000,1.000,0.992,-90.00,180.00,0.00,OPEN,0
667603.106,1,0,0,1.000,1.000,0.995,-90.00,180.00,0.00,OPEN,0
667603.156,1,0,0,1.000,1.000,0.996,-90.00,180.00,0.00,OPEN,0
667603.205,1,0,0,1.000,1.000,0.998,-90.00,180.00,0.00,OPEN,0
667603.255,1,0,0,1.000,1.000,0.998,-90.00,180.00,0.00,OPEN,0
667603.305,1,0,0,1.000,1.000,0.997,-90.00,180.00,0.00,OPEN,0
667603.356,1,0,0,1.000,1.000,0.994,-90.00,180.00,0.00,OPEN,0
667603.405,1,0,0,1.000,1.000,0.994,-90.00,180.00,0.00,OPEN,0
667603.456,1,0,0,1.000,1.000,0.993,-90.00,180.00,0.00,OPEN,0
667603.506,1,0,0,1.000,1.000,0.989,-90.00,180.00,0.00,OPEN,0
667603.555,1,0,0,1.000,1.000,0.981,-90.00,180.00,0.00,OPEN,0
667603.606,1,0,0,1.000,1.000,0.978,-90.00,180.00,0.00,OPEN,0
667603.656,1,0,0,1.000,1.000,0.983,-90.00,180.00,0.00,OPEN,0
667603.706,1,0,0,1.000,1.000,0.993,-90.00,180.00,0.00,OPEN,0
667603.755,1,0,0,1.000,1.000,0.992,-90.00,180.00,0.00,OPEN,0
667603.806,1,0,0,1.000,1.000,0.992,-90.00,180.00,0.00,OPEN,0
667603.855,1,0,0,1.000,1.000,0.989,-90.00,180.00,0.00,OPEN,0
667603.906,1,0,0,1.000,1.000,0.988,-90.00,180.00,0.00,OPEN,0
667603.956,1,0,0,1.000,1.000,0.957,-90.00,180.00,0.00,OPEN,0
667604.005,1,0,0,1.000,1.000,0.920,-90.00,180.00,0.00,OPEN,0
667604.056,1,0,0,1.000,1.000,0.942,-90.00,180.00,0.00,OPEN,0
667604.105,1,0,0,1.000,1.000,0.936,-90.00,180.00,0.00,OPEN,0
667604.156,1,0,0,1.000,1.000,0.935,-90.00,180.00,0.00,OPEN,0
667604.206,1,0,0,1.000,1.000,0.911,-90.00,180.00,0.00,OPEN,0
667604.257,1,0,0,1.000,1.000,0.908,-90.00,180.00,0.00,OPEN,0
667604.306,1,0,0,1.000,1.000,0.968,-90.00,180.00,0.00,OPEN,0
667604.356,1,0,0,1.000,1.000,0.969,-90.00,180.00,0.00,OPEN,0
667604.405,1,0,0,1.000,1.000,0.981,-90.00,180.00,0.00,OPEN,0
667604.456,1,0,0,1.000,1.000,0.995,-90.00,180.00,0.00,OPEN,0
667604.507,1,0,0,1.000,1.000,0.996,-90.00,180.00,0.00,OPEN,0
667604.556,1,0,0,1.000,1.000,0.996,-90.00,180.00,0.00,OPEN,0
667604.606,1,0,0,1.000,1.000,0.994,-90.00,180.00,0.00,OPEN,0
667604.656,1,0,0,1.000,1.000,0.990,-90.00,180.00,0.00,OPEN,0
667604.706,1,0,0,1.000,1.000,0.986,-90.00,180.00,0.00,OPEN,0
667604.756,1,0,0,1.000,1.000,0.987,-90.00,180.00,0.00,OPEN,0
667604.806,1,0,0,1.000,1.000,0.982,-90.00,180.00,0.00,OPEN,0
667604.855,1,0,0,1.000,1.000,0.978,-90.00,180.00,0.00,OPEN,0
667604.905,1,0,0,1.000,1.000,0.983,-90.00,180.00,0.00,OPEN,0
667604.955,1,0,0,1.000,1.000,0.988,-90.00,180.00,0.00,OPEN,0
667605.006,1,0,0,1.000,1.000,0.994,-90.00,180.00,0.00,OPEN,0
667605.058,1,0,0,1.000,1.000,0.994,-90.00,180.00,0.00,OPEN,0
667605.108,1,0,0,1.000,1.000,0.990,-90.00,180.00,0.00,OPEN,0
667605.156,1,0,0,1.000,1.000,0.991,-90.00,180.00,0.00,OPEN,0
667605.206,1,0,0,1.000,1.000,0.989,-90.00,180.00,0.00,OPEN,0
667605.256,1,0,0,1.000,1.000,0.986,-90.00,180.00,0.00,OPEN,0
667605.306,1,0,0,1.000,1.000,0.985,-90.00,180.00,0.00,OPEN,0
667605.356,1,0,0,1.000,1.000,0.981,-90.00,180.00,0.00,OPEN,0
667605.405,1,0,0,1.000,1.000,0.979,-90.00,180.00,0.00,OPEN,0
667605.455,1,0,0,1.000,1.000,0.988,-90.00,180.00,0.00,OPEN,0
667605.506,1,0,0,1.000,1.000,0.987,-90.00,180.00,0.00,OPEN,0
667605.556,1,0,0,1.000,1.000,0.987,-90.00,180.00,0.00,OPEN,0
667605.606,1,0,0,1.000,1.000,0.987,-90.00,180.00,0.00,OPEN,0
667605.656,1,0,0,1.000,1.000,0.990,-90.00,180.00,0.00,OPEN,0
667605.705,1,0,0,1.000,1.000,0.994,-90.00,180.00,0.00,OPEN,0
667605.756,1,0,0,1.000,1.000,0.989,-90.00,180.00,0.00,OPEN,0
667605.806,1,0,0,1.000,1.000,0.987,-90.00,180.00,0.00,OPEN,0
667605.855,1,0,0,1.000,1.000,0.987,-90.00,180.00,0.00,OPEN,0
667605.906,1,0,0,1.000,1.000,0.990,-90.00,180.00,0.00,OPEN,0
667605.956,1,0,0,1.000,1.000,0.981,-90.00,180.00,0.00,OPEN,0
667606.006,1,0,0,1.000,1.000,0.979,-90.00,180.00,0.00,OPEN,0
667606.055,1,0,0,1.000,1.000,0.985,-90.00,180.00,0.00,OPEN,0
667606.106,1,0,0,1.000,1.000,1.000,-90.00,180.00,0.00,OPEN,0
667606.156,1,0,0,1.000,1.000,1.000,-90.00,180.00,0.00,OPEN,0
667606.205,1,0,0,1.000,1.000,1.000,-90.00,180.00,0.00,OPEN,0
667606.256,1,0,0,1.000,1.000,1.000,-90.00,180.00,0.00,OPEN,0
667606.306,1,0,0,1.000,1.000,1.000,-90.00,180.00,0.00,OPEN,0
667606.356,1,0,0,1.000,1.000,1.000,-90.00,180.00,0.00,OPEN,0
667606.406,1,0,0,1.000,1.000,1.000,-90.00,180.00,0.00,OPEN,0
667606.456,1,0,0,1.000,1.000,1.000,-90.00,180.00,0.00,OPEN,0
667606.507,1,0,0,1.000,1.000,1.000,-90.00,180.00,0.00,OPEN,0
667606.556,1,0,0,1.000,1.000,1.000,-90.00,180.00,0.00,OPEN,0
667606.606,1,0,0,1.000,1.000,1.000,-90.00,180.00,0.00,OPEN,0
667606.659,1,0,0,1.000,1.000,1.000,-90.00,180.00,0.00,OPEN,0
667606.706,1,0,0,1.000,1.000,1.000,-90.00,180.00,0.00,OPEN,0
667606.756,1,0,0,1.000,1.000,1.000,-90.00,180.00,0.00,OPEN,0
667606.806,1,0,0,1.000,1.000,1.000,-90.00,180.00,0.00,OPEN,0
667606.856,1,0,0,1.000,1.000,1.000,-90.00,180.00,0.00,OPEN,0
667606.906,1,0,0,1.000,1.000,1.000,-90.00,180.00,0.00,OPEN,0
667606.955,1,0,0,1.000,1.000,1.000,-90.00,180.00,0.00,OPEN,0
667607.006,1,1,1,1.000,1.000,0.924,-90.00,180.00,0.00,OPEN,0
667607.056,1,1,1,1.000,1.000,0.700,-90.00,180.00,0.00,OPEN,0
667607.106,1,1,1,1.000,1.000,0.790,-90.00,180.00,0.00,OPEN,0
667607.156,1,1,1,1.000,1.000,1.000,-90.00,180.00,0.00,OPEN,0
667607.206,1,1,1,1.000,1.000,1.000,-90.00,180.00,0.00,OPEN,0
667607.256,1,1,1,1.000,1.000,1.000,-90.00,180.00,0.00,OPEN,0
667607.306,1,1,1,0.773,1.000,1.000,-90.00,180.00,0.00,OPEN,0
667607.356,1,1,1,1.000,1.000,1.000,-90.00,180.00,0.00,OPEN,0
667607.406,1,1,1,1.000,1.000,1.000,-90.00,180.00,0.00,OPEN,0
667607.456,1,1,1,1.000,1.000,1.000,-90.00,180.00,0.00,OPEN,0
667607.505,1,1,1,1.000,1.000,1.000,-90.00,180.00,0.00,OPEN,0
667607.556,1,1,1,1.000,1.000,1.000,-90.00,180.00,0.00,OPEN,0
667607.606,1,1,1,1.000,1.000,1.000,-90.00,180.00,0.00,OPEN,0
667607.656,1,1,1,1.000,0.522,0.982,-90.00,180.00,0.00,OPEN,0
667607.705,0,1,1,1.000,0.998,0.732,-90.00,180.00,0.00,OPEN,0
667607.756,0,1,1,1.000,1.000,0.598,-90.00,180.00,0.00,OPEN,0
667607.806,0,1,1,1.000,1.000,0.546,-90.00,180.00,0.00,OPEN,0
667607.856,0,1,1,1.000,1.000,0.600,-90.00,180.00,0.00,OPEN,0
667607.905,0,1,1,1.000,1.000,0.996,-90.00,180.00,0.00,OPEN,0
667607.956,0,0,1,1.000,1.000,0.976,-90.00,180.00,0.00,OPEN,0
667608.006,0,0,0,1.000,1.000,0.959,-90.00,180.00,0.00,OPEN,0
667608.056,0,0,0,1.000,1.000,0.984,-90.00,180.00,0.00,OPEN,0
667608.106,0,0,0,1.000,0.992,0.988,-90.00,180.00,0.00,OPEN,0
667608.156,0,0,0,1.000,0.973,0.978,-90.00,180.00,0.00,OPEN,0
667608.206,0,0,0,1.000,0.743,0.999,-90.00,180.00,0.00,OPEN,0
667608.256,0,0,0,1.000,1.000,1.000,-90.00,180.00,0.00,OPEN,0
667608.306,0,0,0,1.000,1.000,0.995,-90.00,180.00,0.00,OPEN,0
667608.356,0,0,0,1.000,0.810,0.803,-90.00,180.00,0.00,OPEN,0
667608.406,0,0,0,1.000,0.977,0.574,-90.00,180.00,0.00,OPEN,0
667608.456,0,0,0,1.000,0.949,0.637,-90.00,180.00,0.00,OPEN,0
667608.505,0,0,0,1.000,0.778,0.794,-90.00,180.00,0.00,OPEN,0
667608.556,0,0,0,1.000,0.995,0.992,-90.00,180.00,0.00,OPEN,0
667608.606,0,0,0,1.000,1.000,1.000,-90.00,180.00,0.00,OPEN,0
667608.660,0,0,0,1.000,1.000,1.000,-90.00,180.00,0.00,OPEN,0
667608.706,0,0,0,1.000,1.000,1.000,-90.00,180.00,0.00,OPEN,0
667608.755,0,0,0,1.000,1.000,1.000,-90.00,180.00,0.00,OPEN,0
667608.806,0,0,0,1.000,1.000,1.000,-90.00,180.00,0.00,OPEN,0
667608.856,0,0,0,1.000,1.000,1.000,-90.00,180.00,0.00,OPEN,0
667608.906,0,0,0,1.000,1.000,1.000,-90.00,180.00,0.00,OPEN,0
667608.956,0,0,0,1.000,1.000,0.956,-90.00,180.00,0.00,OPEN,0
667609.006,0,0,0,1.000,1.000,0.562,-90.00,180.00,0.00,OPEN,0
667609.056,0,0,0,1.000,1.000,1.000,-90.00,180.00,0.00,OPEN,0
667609.106,0,0,0,1.000,1.000,1.000,-90.00,180.00,0.00,OPEN,0
667609.156,0,0,0,1.000,1.000,1.000,-90.00,180.00,0.00,OPEN,0
667609.206,0,0,0,1.000,1.000,1.000,-90.00,180.00,0.00,OPEN,0
667609.256,0,0,0,1.000,1.000,1.000,-90.00,180.00,0.00,OPEN,0
667609.306,0,0,0,1.000,1.000,1.000,-90.00,180.00,0.00,OPEN,0
667609.356,0,0,0,1.000,1.000,1.000,-90.00,180.00,0.00,OPEN,0
667609.405,0,0,0,1.000,1.000,1.000,-90.00,180.00,0.00,OPEN,0
667609.456,0,0,0,1.000,1.000,1.000,-90.00,180.00,0.00,OPEN,0
667609.506,0,0,0,1.000,1.000,1.000,-90.00,180.00,0.00,OPEN,0
667609.555,0,0,0,1.000,1.000,1.000,-90.00,180.00,0.00,OPEN,0
667609.606,0,0,0,1.000,1.000,1.000,-90.00,180.00,0.00,OPEN,0
667609.655,0,0,0,1.000,1.000,1.000,-90.00,180.00,0.00,OPEN,0
667609.706,0,0,0,1.000,1.000,1.000,-90.00,180.00,0.00,OPEN,0
667609.756,0,0,0,1.000,1.000,1.000,-90.00,180.00,0.00,OPEN,0
667609.806,0,0,0,1.000,1.000,1.000,-90.00,180.00,0.00,OPEN,0
667609.856,0,0,0,1.000,1.000,1.000,-90.00,180.00,0.00,OPEN,0
667609.906,0,0,0,1.000,0.999,1.000,-90.00,180.00,0.00,OPEN,0
667609.956,0,0,0,1.000,0.847,0.986,-90.00,180.00,0.00,OPEN,0
667610.006,0,0,0,1.000,1.000,0.759,-90.00,180.00,0.00,OPEN,0
667610.056,0,0,0,1.000,1.000,0.965,-90.00,180.00,0.00,OPEN,0
667610.106,0,0,0,1.000,1.000,0.994,-90.00,180.00,0.00,OPEN,0
667610.156,0,0,0,1.000,1.000,0.994,-90.00,180.00,0.00,OPEN,0
667610.206,0,0,0,1.000,1.000,0.993,-90.00,180.00,0.00,OPEN,0
667610.256,0,0,0,1.000,1.000,0.991,-90.00,180.00,0.00,OPEN,0
667610.305,0,0,0,1.000,1.000,0.987,-90.00,180.00,0.00,OPEN,0
667610.357,0,0,0,1.000,1.000,0.991,-90.00,180.00,0.00,OPEN,0
667610.406,0,0,0,1.000,1.000,0.995,-90.00,180.00,0.00,OPEN,0
667610.457,0,0,1,1.000,1.000,0.993,-90.00,180.00,0.00,OPEN,0
667610.506,0,0,1,1.000,1.000,0.985,-90.00,180.00,0.00,OPEN,0
667610.556,0,0,1,1.000,1.000,0.981,-90.00,180.00,0.00,OPEN,0
667610.606,0,0,1,1.000,1.000,0.991,-90.00,180.00,0.00,OPEN,0
667610.656,0,0,1,1.000,1.000,0.989,-90.00,180.00,0.00,OPEN,0
667610.706,0,0,1,1.000,1.000,0.980,-90.00,180.00,0.00,OPEN,0
667610.755,0,0,1,1.000,1.000,0.959,-90.00,180.00,0.00,OPEN,0
667610.806,0,0,1,1.000,1.000,0.587,-90.00,180.00,0.00,OPEN,0
667610.856,0,0,1,1.000,1.000,0.505,-90.00,180.00,0.00,OPEN,0
667610.906,0,0,1,1.000,1.000,0.514,-90.00,180.00,0.00,OPEN,0
667610.956,0,0,1,1.000,1.000,0.504,-90.00,180.00,0.00,OPEN,0
667611.005,0,0,1,1.000,1.000,0.527,-90.00,180.00,0.00,OPEN,0
667611.056,0,0,1,1.000,1.000,0.761,-90.00,180.00,0.00,OPEN,0
667611.106,0,0,1,1.000,1.000,0.892,-90.00,180.00,0.00,OPEN,0
667611.156,0,0,1,1.000,1.000,0.929,-90.00,180.00,0.00,OPEN,0
667611.206,0,0,1,1.000,1.000,0.940,-90.00,180.00,0.00,OPEN,0
667611.256,0,0,1,1.000,1.000,0.913,-90.00,180.00,0.00,OPEN,0
667611.306,0,0,1,1.000,1.000,0.912,-90.00,180.00,0.00,OPEN,0
667611.355,0,0,1,1.000,1.000,0.848,-90.00,180.00,0.00,OPEN,0
667611.406,0,0,1,1.000,1.000,0.874,-90.00,180.00,0.00,OPEN,0
667611.456,0,0,1,1.000,1.000,0.876,-90.00,180.00,0.00,OPEN,0
667611.505,0,0,1,1.000,1.000,0.909,-90.00,180.00,0.00,OPEN,0
667611.556,0,0,1,1.000,1.000,0.925,-90.00,180.00,0.00,OPEN,0
667611.606,0,0,1,1.000,1.000,0.970,-90.00,180.00,0.00,OPEN,0
667611.656,0,0,1,1.000,1.000,0.980,-90.00,180.00,0.00,OPEN,0
667611.705,0,0,1,1.000,1.000,0.982,-90.00,180.00,0.00,OPEN,0
667611.755,0,0,1,1.000,1.000,0.990,-90.00,180.00,0.00,OPEN,0
667611.806,0,0,1,1.000,1.000,0.993,-90.00,180.00,0.00,OPEN,0
667611.856,0,0,1,1.000,1.000,0.991,-90.00,180.00,0.00,OPEN,0
667611.908,0,0,1,1.000,1.000,0.993,-90.00,180.00,0.00,OPEN,0
667611.956,0,0,1,1.000,1.000,0.995,-90.00,180.00,0.00,OPEN,0
667612.006,0,0,1,1.000,1.000,0.995,-90.00,180.00,0.00,OPEN,0
667612.056,0,0,1,1.000,1.000,0.996,-90.00,180.00,0.00,OPEN,0
667612.106,0,0,1,1.000,1.000,0.997,-90.00,180.00,0.00,OPEN,0
667612.155,0,0,1,1.000,1.000,0.988,-90.00,180.00,0.00,OPEN,0
667612.206,0,0,1,1.000,1.000,0.949,-90.00,180.00,0.00,OPEN,0
667612.257,0,0,1,1.000,1.000,0.769,-90.00,180.00,0.00,OPEN,0
667612.306,0,0,1,1.000,1.000,0.682,-90.00,180.00,0.00,OPEN,0
667612.356,0,0,1,1.000,1.000,0.598,-90.00,180.00,0.00,OPEN,0
667612.406,0,0,1,1.000,1.000,0.619,-90.00,180.00,0.00,OPEN,0
667612.456,0,0,1,1.000,1.000,0.518,-90.00,180.00,0.00,OPEN,0
667612.506,0,0,1,1.000,1.000,0.527,-90.00,180.00,0.00,OPEN,0
667612.556,0,0,1,1.000,1.000,0.560,-90.00,180.00,0.00,OPEN,0
667612.606,0,0,1,1.000,1.000,0.534,-90.00,180.00,0.00,OPEN,0
667612.656,0,0,1,1.000,1.000,0.687,-90.00,180.00,0.00,OPEN,0
667612.706,0,0,1,1.000,1.000,0.702,-90.00,180.00,0.00,OPEN,0
667612.756,0,0,1,1.000,1.000,0.818,-90.00,180.00,0.00,OPEN,0
667612.806,0,0,1,1.000,1.000,0.739,-90.00,180.00,0.00,OPEN,0
667612.856,0,0,1,1.000,1.000,0.771,-90.00,180.00,0.00,OPEN,0
667612.905,0,0,1,1.000,1.000,0.750,-90.00,180.00,0.00,OPEN,0
667612.955,0,0,1,1.000,1.000,0.721,-90.00,180.00,0.00,OPEN,0
667613.007,0,0,1,1.000,1.000,0.617,-90.00,180.00,0.00,OPEN,0
667613.056,0,0,1,1.000,1.000,0.580,-90.00,180.00,0.00,OPEN,0
667613.106,0,0,1,1.000,1.000,0.666,-90.00,180.00,0.00,OPEN,0
667613.156,0,0,1,1.000,1.000,0.615,-90.00,180.00,0.00,OPEN,0
667613.205,0,0,1,1.000,1.000,0.527,-90.00,180.00,0.00,OPEN,0
667613.256,0,0,1,1.000,1.000,0.607,-90.00,180.00,0.00,OPEN,0
667613.306,0,0,1,1.000,1.000,0.608,-90.00,180.00,0.00,OPEN,0
667613.356,0,0,1,1.000,1.000,0.708,-90.00,180.00,0.00,OPEN,0
667613.406,0,0,1,1.000,1.000,0.855,-90.00,180.00,0.00,OPEN,0
667613.456,0,0,1,1.000,1.000,0.816,-90.00,180.00,0.00,OPEN,0
667613.510,0,0,1,1.000,1.000,0.858,-90.00,180.00,0.00,OPEN,0
667613.556,0,0,1,1.000,1.000,0.850,-90.00,180.00,0.00,OPEN,0
667613.606,0,0,1,1.000,1.000,0.653,-90.00,180.00,0.00,OPEN,0
667613.655,0,0,1,1.000,1.000,0.612,-90.00,180.00,0.00,OPEN,0
667613.706,0,0,1,1.000,1.000,0.638,-90.00,180.00,0.00,OPEN,0
667613.756,0,0,1,1.000,1.000,0.707,-90.00,180.00,0.00,OPEN,0
667613.806,0,0,1,1.000,1.000,0.766,-90.00,180.00,0.00,OPEN,0
667613.856,0,0,1,1.000,1.000,0.682,-90.00,180.00,0.00,OPEN,0
667613.905,0,0,1,1.000,1.000,0.505,-90.00,180.00,0.00,OPEN,0
667613.956,0,0,1,1.000,1.000,0.640,-90.00,180.00,0.00,OPEN,0
667614.005,0,0,1,1.000,1.000,0.733,-90.00,180.00,0.00,OPEN,0
667614.055,0,0,1,1.000,1.000,1.000,-90.00,180.00,0.00,OPEN,0
667614.106,0,0,1,1.000,1.000,1.000,-90.00,180.00,0.00,OPEN,0
667614.156,0,0,1,1.000,1.000,1.000,-90.00,180.00,0.00,OPEN,0
667614.206,0,0,1,1.000,1.000,1.000,-90.00,180.00,0.00,OPEN,0
667614.256,0,0,1,1.000,1.000,1.000,-90.00,180.00,0.00,OPEN,0
667614.306,0,0,1,1.000,1.000,1.000,-90.00,180.00,0.00,OPEN,0
667614.356,0,0,1,1.000,1.000,1.000,-90.00,180.00,0.00,OPEN,0
667614.405,0,0,1,1.000,1.000,1.000,-90.00,180.00,0.00,OPEN,0
667614.456,0,0,1,1.000,1.000,1.000,-90.00,180.00,0.00,OPEN,0
667614.506,0,0,1,1.000,1.000,1.000,-90.00,180.00,0.00,OPEN,0
667614.556,0,0,1,0.984,1.000,1.000,-90.00,180.00,0.00,OPEN,0
667614.605,0,0,1,0.985,1.000,1.000,-90.00,180.00,0.00,OPEN,0
667614.656,0,0,1,0.968,1.000,1.000,-90.00,180.00,0.00,OPEN,0
667614.706,0,0,1,0.966,1.000,1.000,-90.00,180.00,0.00,OPEN,0
667614.756,0,0,1,0.962,1.000,1.000,-90.00,180.00,0.00,OPEN,0
667614.805,0,0,1,0.957,1.000,1.000,-90.00,180.00,0.00,OPEN,0
667614.856,0,0,0,0.937,1.000,1.000,-90.00,180.00,0.00,OPEN,0
667614.906,0,0,0,0.984,1.000,1.000,-90.00,180.00,0.00,OPEN,0
667614.956,0,0,0,0.999,1.000,1.000,-90.00,180.00,0.00,OPEN,0
667615.010,0,0,0,1.000,1.000,1.000,-90.00,180.00,0.00,OPEN,0
667615.056,0,0,0,1.000,0.985,0.999,-90.00,180.00,0.00,OPEN,0
667615.106,0,0,0,1.000,1.000,1.000,-90.00,180.00,0.00,OPEN,0
667615.156,0,0,0,1.000,1.000,1.000,-90.00,180.00,0.00,OPEN,0
667615.206,0,0,0,1.000,0.997,1.000,-90.00,180.00,0.00,OPEN,0
667615.256,2,0,0,1.000,1.000,1.000,-90.00,180.00,0.00,OPEN,0
667615.306,2,0,0,1.000,1.000,1.000,-90.00,180.00,0.00,OPEN,0
667615.356,2,0,0,1.000,1.000,1.000,-90.00,180.00,0.00,OPEN,0
667615.406,2,0,0,1.000,1.000,1.000,-90.00,180.00,0.00,OPEN,0
667615.456,2,1,1,1.000,0.996,0.988,-90.00,180.00,0.00,OPEN,0
667615.506,2,1,1,1.000,0.999,0.980,-90.00,180.00,0.00,OPEN,0
667615.557,2,1,1,1.000,0.999,0.977,-90.00,180.00,0.00,OPEN,0
667615.606,2,1,1,1.000,0.998,0.962,-90.00,180.00,0.00,OPEN,0
667615.656,2,1,1,1.000,0.958,0.800,-90.00,180.00,0.00,OPEN,0
667615.706,2,1,1,1.000,1.000,0.998,-90.00,180.00,0.00,OPEN,0
667615.756,2,1,1,1.000,1.000,1.000,-90.00,180.00,0.00,OPEN,0
667615.806,2,1,1,1.000,1.000,1.000,-90.00,180.00,0.00,OPEN,0
667615.855,2,1,1,1.000,1.000,1.000,-90.00,180.00,0.00,OPEN,0
667615.905,2,1,1,1.000,1.000,1.000,-90.00,180.00,0.00,OPEN,0
667615.956,2,1,1,1.000,1.000,1.000,-90.00,180.00,0.00,OPEN,0
667616.006,2,1,1,1.000,1.000,1.000,-90.00,180.00,0.00,OPEN,0
667616.056,2,1,1,1.000,1.000,1.000,-90.00,180.00,0.00,OPEN,0
667616.106,2,1,1,1.000,1.000,1.000,-90.00,180.00,0.00,OPEN,0
667616.156,2,1,1,1.000,1.000,1.000,-90.00,180.00,0.00,OPEN,0
667616.206,2,1,1,1.000,1.000,1.000,-90.00,180.00,0.00,OPEN,0
667616.256,2,1,1,1.000,1.000,1.000,-90.00,180.00,0.00,OPEN,0
667616.306,2,1,1,1.000,1.000,1.000,-90.00,180.00,0.00,OPEN,0
667616.356,2,1,1,1.000,1.000,1.000,-90.00,180.00,0.00,OPEN,0
667616.405,2,1,1,1.000,1.000,1.000,-90.00,180.00,0.00,OPEN,0
667616.455,2,1,1,1.000,1.000,1.000,-90.00,180.00,0.00,OPEN,0
667616.505,2,1,1,1.000,1.000,1.000,-90.00,180.00,0.00,OPEN,0
667616.556,2,1,1,1.000,1.000,1.000,-90.00,180.00,0.00,OPEN,0
667616.606,2,0,0,1.000,1.000,1.000,-90.00,180.00,0.00,OPEN,0
667616.656,2,0,0,1.000,1.000,1.000,-90.00,180.00,0.00,OPEN,0
667616.705,2,0,0,1.000,1.000,1.000,-90.00,180.00,0.00,OPEN,0
667616.756,2,0,0,1.000,1.000,1.000,-90.00,180.00,0.00,OPEN,0
667616.805,2,0,0,1.000,1.000,1.000,-90.00,180.00,0.00,OPEN,0
667616.856,2,0,0,1.000,1.000,1.000,-90.00,180.00,0.00,OPEN,0
667616.905,2,0,0,1.000,1.000,1.000,-90.00,180.00,0.00,OPEN,0
667616.956,2,0,0,1.000,1.000,1.000,-90.00,180.00,0.00,OPEN,0
667617.006,2,0,0,1.000,1.000,1.000,-90.00,180.00,0.00,OPEN,0
667617.056,2,0,0,1.000,1.000,1.000,-90.00,180.00,0.00,OPEN,0
667617.106,2,0,0,1.000,1.000,1.000,-90.00,180.00,0.00,OPEN,0
667617.155,2,0,0,1.000,1.000,1.000,-90.00,180.00,0.00,OPEN,0
667617.206,2,0,0,1.000,1.000,1.000,-90.00,180.00,0.00,OPEN,0
667617.257,2,0,0,1.000,1.000,1.000,-90.00,180.00,0.00,OPEN,0
667617.306,2,0,0,1.000,1.000,1.000,-90.00,180.00,0.00,OPEN,0
667617.356,2,0,0,1.000,1.000,1.000,-90.00,180.00,0.00,OPEN,0
667617.406,2,0,0,1.000,1.000,1.000,-90.00,180.00,0.00,OPEN,0
667617.456,2,0,0,1.000,1.000,1.000,-90.00,180.00,0.00,OPEN,0
667617.506,2,0,0,1.000,1.000,1.000,-90.00,180.00,0.00,OPEN,0
667617.555,2,0,0,1.000,1.000,1.000,-90.00,180.00,0.00,OPEN,0
667617.606,2,0,0,1.000,1.000,1.000,-90.00,180.00,0.00,OPEN,0
667617.656,2,0,0,1.000,1.000,1.000,-90.00,180.00,0.00,OPEN,0
667617.706,2,0,0,1.000,1.000,1.000,-90.00,180.00,0.00,OPEN,0
667617.756,2,0,0,1.000,1.000,1.000,-90.00,180.00,0.00,OPEN,0
667617.806,2,0,0,1.000,1.000,1.000,-90.00,180.00,0.00,OPEN,0
667617.855,2,0,0,1.000,1.000,1.000,-90.00,180.00,0.00,OPEN,0
667617.906,2,0,0,1.000,1.000,1.000,-90.00,180.00,0.00,OPEN,0
667617.955,2,0,0,1.000,1.000,1.000,-90.00,180.00,0.00,OPEN,0
667618.006,2,0,0,1.000,1.000,1.000,-90.00,180.00,0.00,OPEN,0
667618.056,2,0,0,1.000,1.000,1.000,-90.00,180.00,0.00,OPEN,0
667618.106,2,0,0,1.000,1.000,1.000,-90.00,180.00,0.00,OPEN,0
667618.156,2,0,0,1.000,1.000,1.000,-90.00,180.00,0.00,OPEN,0
667618.206,2,0,0,1.000,1.000,1.000,-90.00,180.00,0.00,OPEN,0
667618.256,2,0,0,1.000,1.000,1.000,-90.00,180.00,0.00,OPEN,0
667618.306,2,0,0,1.000,1.000,1.000,-90.00,180.00,0.00,OPEN,0
667618.356,2,0,0,1.000,1.000,1.000,-90.00,180.00,0.00,OPEN,0
667618.405,2,0,0,1.000,1.000,1.000,-90.00,180.00,0.00,OPEN,0
667618.455,2,0,0,1.000,1.000,1.000,-90.00,180.00,0.00,OPEN,0
667618.506,2,0,0,1.000,1.000,1.000,-90.00,180.00,0.00,OPEN,0
667618.555,2,0,0,1.000,1.000,1.000,-90.00,180.00,0.00,OPEN,0
667618.606,2,0,0,1.000,1.000,1.000,-90.00,180.00,0.00,OPEN,0
667618.656,2,0,0,1.000,1.000,1.000,-90.00,180.00,0.00,OPEN,0
667618.706,2,0,0,1.000,1.000,1.000,-90.00,180.00,0.00,OPEN,0
667618.756,2,0,0,1.000,1.000,1.000,-90.00,180.00,0.00,OPEN,0
667618.806,2,0,0,1.000,1.000,1.000,-90.00,180.00,0.00,OPEN,0
667618.856,2,0,0,1.000,1.000,1.000,-90.00,180.00,0.00,OPEN,0
667618.906,2,0,0,1.000,1.000,1.000,-90.00,180.00,0.00,OPEN,0
667618.956,2,0,0,1.000,1.000,1.000,-90.00,180.00,0.00,OPEN,0
667619.006,2,0,0,1.000,1.000,1.000,-90.00,180.00,0.00,OPEN,0
667619.056,2,0,0,1.000,1.000,1.000,-90.00,180.00,0.00,OPEN,0
667619.106,2,0,0,1.000,1.000,1.000,-90.00,180.00,0.00,OPEN,0
667619.160,2,0,0,1.000,1.000,1.000,-90.00,180.00,0.00,OPEN,0
667619.206,2,0,0,1.000,1.000,1.000,-90.00,180.00,0.00,OPEN,0
667619.256,2,0,0,1.000,1.000,1.000,-90.00,180.00,0.00,OPEN,0
667619.305,2,0,0,1.000,1.000,1.000,-90.00,180.00,0.00,OPEN,0
667619.356,2,0,0,1.000,1.000,1.000,-90.00,180.00,0.00,OPEN,0
667619.406,2,0,0,1.000,1.000,1.000,-90.00,180.00,0.00,OPEN,0
667619.456,2,0,0,1.000,1.000,1.000,-90.00,180.00,0.00,OPEN,0
667619.506,2,0,0,1.000,1.000,1.000,-90.00,180.00,0.00,OPEN,0
667619.555,2,0,0,1.000,1.000,1.000,-90.00,180.00,0.00,OPEN,0
667619.606,2,0,0,1.000,1.000,1.000,-90.00,180.00,0.00,OPEN,0
667619.655,2,0,0,1.000,1.000,1.000,-90.00,180.00,0.00,OPEN,0
667619.706,2,0,0,1.000,1.000,1.000,-90.00,180.00,0.00,OPEN,0
667619.756,2,0,0,1.000,1.000,1.000,-90.00,180.00,0.00,OPEN,0
667619.806,2,0,0,1.000,1.000,1.000,-90.00,180.00,0.00,OPEN,0
667619.856,2,0,0,1.000,1.000,1.000,-90.00,180.00,0.00,OPEN,0
667619.906,2,0,0,1.000,1.000,1.000,-90.00,180.00,0.00,OPEN,0
667619.956,2,0,0,1.000,1.000,1.000,-90.00,180.00,0.00,OPEN,0
667620.006,2,0,0,1.000,1.000,1.000,-90.00,180.00,0.00,OPEN,0
667620.056,2,0,0,1.000,1.000,1.000,-90.00,180.00,0.00,OPEN,0
667620.106,2,0,0,1.000,1.000,1.000,-90.00,180.00,0.00,OPEN,0
667620.156,2,0,0,1.000,1.000,1.000,-90.00,180.00,0.00,OPEN,0
667620.206,2,0,0,1.000,1.000,1.000,-90.00,180.00,0.00,OPEN,0
667620.256,2,0,0,1.000,1.000,1.000,-90.00,180.00,0.00,OPEN,0
667620.306,2,0,0,1.000,1.000,1.000,-90.00,180.00,0.00,OPEN,0
667620.358,2,0,0,1.000,1.000,1.000,-90.00,180.00,0.00,OPEN,0
667620.406,2,0,0,1.000,1.000,1.000,-90.00,180.00,0.00,OPEN,0
667620.455,2,0,0,1.000,1.000,1.000,-90.00,180.00,0.00,OPEN,0
667620.506,2,0,0,1.000,1.000,1.000,-90.00,180.00,0.00,OPEN,0
667620.555,2,0,0,1.000,1.000,1.000,-90.00,180.00,0.00,OPEN,0
667620.605,2,0,0,1.000,1.000,1.000,-90.00,180.00,0.00,OPEN,0
667620.656,2,0,0,1.000,1.000,1.000,-90.00,180.00,0.00,OPEN,0
667620.706,2,0,0,1.000,1.000,1.000,-90.00,180.00,0.00,OPEN,0
667620.760,2,0,0,1.000,1.000,1.000,-90.00,180.00,0.00,OPEN,0
667620.806,2,0,0,0.999,1.000,1.000,-90.00,180.00,0.00,OPEN,0
667620.855,2,0,0,0.998,1.000,1.000,-90.00,180.00,0.00,OPEN,0
667620.906,2,0,0,0.994,1.000,1.000,-90.00,180.00,0.00,OPEN,0
667620.956,2,0,0,0.963,1.000,1.000,-90.00,180.00,0.00,OPEN,0
667621.006,2,0,0,0.904,1.000,1.000,-90.00,180.00,0.00,OPEN,0
667621.056,2,0,0,0.723,1.000,1.000,-90.00,180.00,0.00,OPEN,0
667621.106,2,0,0,0.684,1.000,1.000,-90.00,180.00,0.00,OPEN,0
667621.156,2,0,0,0.927,1.000,1.000,-90.00,180.00,0.00,OPEN,0
667621.206,2,0,0,0.966,1.000,1.000,-90.00,180.00,0.00,OPEN,0
667621.256,2,0,0,0.999,1.000,1.000,-90.00,180.00,0.00,OPEN,0
667621.306,2,0,0,1.000,1.000,1.000,-90.00,180.00,0.00,OPEN,0
667621.356,2,0,0,1.000,1.000,1.000,-90.00,180.00,0.00,OPEN,0
667621.406,2,0,0,1.000,1.000,1.000,-90.00,180.00,0.00,OPEN,0
667621.456,2,0,0,1.000,1.000,1.000,-90.00,180.00,0.00,OPEN,0
667621.506,0,0,0,1.000,1.000,1.000,-90.00,180.00,0.00,OPEN,0
667621.555,0,0,0,1.000,1.000,1.000,-90.00,180.00,0.00,OPEN,0
667621.606,0,0,0,1.000,1.000,1.000,-90.00,180.00,0.00,OPEN,0
667621.656,0,0,0,1.000,1.000,1.000,-90.00,180.00,0.00,OPEN,0
667621.706,0,0,0,1.000,1.000,1.000,-90.00,180.00,0.00,OPEN,0
667621.756,0,0,0,1.000,1.000,1.000,-90.00,180.00,0.00,OPEN,0
667621.805,0,0,0,1.000,1.000,1.000,-90.00,180.00,0.00,OPEN,0
667621.856,0,0,0,1.000,1.000,1.000,-90.00,180.00,0.00,OPEN,0
667621.906,0,0,0,1.000,1.000,1.000,-90.00,180.00,0.00,OPEN,0
667621.956,0,0,0,1.000,1.000,1.000,-90.00,180.00,0.00,OPEN,0
667622.007,0,0,0,1.000,1.000,1.000,-90.00,180.00,0.00,OPEN,0
667622.056,0,0,0,1.000,1.000,1.000,-90.00,180.00,0.00,OPEN,0
667622.105,0,0,0,1.000,1.000,1.000,-90.00,180.00,0.00,OPEN,0
667622.156,0,0,0,1.000,1.000,1.000,-90.00,180.00,0.00,OPEN,0
667622.206,0,0,0,1.000,1.000,1.000,-90.00,180.00,0.00,OPEN,0
667622.256,0,0,0,1.000,1.000,1.000,-90.00,180.00,0.00,OPEN,0
667622.306,0,0,0,1.000,1.000,1.000,-90.00,180.00,0.00,OPEN,0
667622.356,0,0,0,1.000,1.000,1.000,-90.00,180.00,0.00,OPEN,0
667622.406,0,0,0,1.000,1.000,1.000,-90.00,180.00,0.00,OPEN,0
667622.456,0,0,0,1.000,1.000,1.000,-90.00,180.00,0.00,OPEN,0
667622.512,0,0,0,1.000,1.000,1.000,-90.00,180.00,0.00,OPEN,0
667622.556,0,0,0,1.000,1.000,1.000,-90.00,180.00,0.00,OPEN,0
667622.606,0,0,0,1.000,1.000,1.000,-90.00,180.00,0.00,OPEN,0
667622.656,0,0,0,1.000,1.000,1.000,-90.00,180.00,0.00,OPEN,0
667622.706,0,0,0,1.000,1.000,1.000,-90.00,180.00,0.00,OPEN,0
667622.756,0,0,0,1.000,1.000,1.000,-90.00,180.00,0.00,OPEN,0
667622.806,0,0,0,1.000,1.000,1.000,-90.00,180.00,0.00,OPEN,0
667622.856,0,0,0,1.000,1.000,1.000,-90.00,180.00,0.00,OPEN,0
667622.906,0,0,0,1.000,1.000,1.000,-90.00,180.00,0.00,OPEN,0
667622.955,0,0,0,1.000,1.000,1.000,-90.00,180.00,0.00,OPEN,0
667623.006,0,0,0,1.000,1.000,1.000,-90.00,180.00,0.00,OPEN,0
667623.056,0,0,0,1.000,1.000,1.000,-90.00,180.00,0.00,OPEN,0
667623.106,0,0,0,1.000,1.000,1.000,-90.00,180.00,0.00,OPEN,0
667623.156,0,0,0,1.000,1.000,1.000,-90.00,180.00,0.00,OPEN,0
667623.206,0,0,0,1.000,1.000,1.000,-90.00,180.00,0.00,OPEN,0
667623.256,0,0,0,1.000,1.000,1.000,-90.00,180.00,0.00,OPEN,0
667623.307,0,0,0,1.000,1.000,1.000,-90.00,180.00,0.00,OPEN,0
667623.356,0,0,0,1.000,1.000,1.000,-90.00,180.00,0.00,OPEN,0
667623.406,0,0,0,1.000,1.000,1.000,-90.00,180.00,0.00,OPEN,0
667623.456,0,0,0,1.000,1.000,1.000,-90.00,180.00,0.00,OPEN,0
667623.506,0,0,0,1.000,1.000,1.000,-90.00,180.00,0.00,OPEN,0
667623.556,0,0,0,1.000,1.000,1.000,-90.00,180.00,0.00,OPEN,0
667623.605,0,0,0,1.000,1.000,1.000,-90.00,180.00,0.00,OPEN,0
667623.656,0,0,0,1.000,1.000,1.000,-90.00,180.00,0.00,OPEN,0
667623.706,0,0,0,1.000,1.000,1.000,-90.00,180.00,0.00,OPEN,0
667623.756,0,0,0,1.000,1.000,1.000,-90.00,180.00,0.00,OPEN,0
667623.806,0,0,0,1.000,1.000,1.000,-90.00,180.00,0.00,OPEN,0
667623.856,0,0,0,1.000,1.000,1.000,-90.00,180.00,0.00,OPEN,0
667623.906,0,0,0,1.000,1.000,1.000,-90.00,180.00,0.00,OPEN,0
667623.956,0,0,0,1.000,1.000,1.000,-90.00,180.00,0.00,OPEN,0
667624.006,0,0,0,1.000,1.000,1.000,-90.00,180.00,0.00,OPEN,0
667624.056,0,0,0,1.000,1.000,1.000,-90.00,180.00,0.00,OPEN,0
667624.110,0,0,0,1.000,1.000,1.000,-90.00,180.00,0.00,OPEN,0
667624.156,0,0,0,1.000,1.000,1.000,-90.00,180.00,0.00,OPEN,0
667624.206,0,0,0,1.000,1.000,1.000,-90.00,180.00,0.00,OPEN,0
667624.256,0,0,0,1.000,1.000,1.000,-90.00,180.00,0.00,OPEN,0
667624.306,0,0,0,1.000,1.000,1.000,-90.00,180.00,0.00,OPEN,0
667624.356,0,0,0,1.000,1.000,1.000,-90.00,180.00,0.00,OPEN,0
667624.406,0,0,0,1.000,1.000,1.000,-90.00,180.00,0.00,OPEN,0
667624.456,0,0,0,1.000,1.000,1.000,-90.00,180.00,0.00,OPEN,0
667624.506,0,0,0,1.000,1.000,1.000,-90.00,180.00,0.00,OPEN,0
667624.556,0,0,0,1.000,1.000,1.000,-90.00,180.00,0.00,OPEN,0
667624.606,0,0,0,1.000,1.000,1.000,-90.00,180.00,0.00,OPEN,0
667624.655,0,0,0,1.000,1.000,1.000,-90.00,180.00,0.00,OPEN,0
667624.706,0,0,0,1.000,1.000,1.000,-90.00,180.00,0.00,OPEN,0
667624.756,0,0,0,1.000,1.000,1.000,-90.00,180.00,0.00,OPEN,0
667624.806,0,0,0,1.000,1.000,1.000,-90.00,180.00,0.00,OPEN,0
667624.856,0,0,0,1.000,1.000,1.000,-90.00,180.00,0.00,OPEN,0
667624.906,0,0,0,1.000,1.000,1.000,-90.00,180.00,0.00,OPEN,0
667624.956,0,0,0,1.000,1.000,1.000,-90.00,180.00,0.00,OPEN,0
667625.006,0,0,0,1.000,1.000,1.000,-90.00,180.00,0.00,OPEN,0
667625.055,0,0,0,1.000,1.000,1.000,-90.00,180.00,0.00,OPEN,0
667625.106,0,0,0,1.000,1.000,1.000,-90.00,180.00,0.00,OPEN,0
667625.156,0,0,0,1.000,1.000,1.000,-90.00,180.00,0.00,OPEN,0
667625.206,0,0,0,1.000,1.000,1.000,-90.00,180.00,0.00,OPEN,0
667625.256,0,0,0,1.000,1.000,1.000,-90.00,180.00,0.00,OPEN,0
667625.306,0,0,0,1.000,1.000,1.000,-90.00,180.00,0.00,OPEN,0
667625.357,0,0,0,1.000,1.000,1.000,-90.00,180.00,0.00,OPEN,0
667625.406,0,0,0,1.000,1.000,1.000,-90.00,180.00,0.00,OPEN,0
667625.455,0,0,0,1.000,1.000,1.000,-90.00,180.00,0.00,OPEN,0
667625.505,0,0,0,1.000,1.000,1.000,-90.00,180.00,0.00,OPEN,0
667625.555,0,0,0,1.000,1.000,1.000,-90.00,180.00,0.00,OPEN,0
667625.605,0,0,0,1.000,1.000,1.000,-90.00,180.00,0.00,OPEN,0
667625.656,0,0,0,1.000,1.000,1.000,-90.00,180.00,0.00,OPEN,0
667625.706,0,0,0,1.000,1.000,1.000,-90.00,180.00,0.00,OPEN,0
667625.756,0,0,0,1.000,1.000,1.000,-90.00,180.00,0.00,OPEN,0
667625.805,0,0,0,1.000,1.000,1.000,-90.00,180.00,0.00,OPEN,0
667625.862,0,0,0,1.000,1.000,1.000,-90.00,180.00,0.00,OPEN,0
667625.906,0,0,0,1.000,1.000,1.000,-90.00,180.00,0.00,OPEN,0
667625.956,0,0,0,1.000,1.000,1.000,-90.00,180.00,0.00,OPEN,0
667626.006,0,0,0,1.000,1.000,1.000,-90.00,180.00,0.00,OPEN,0
667626.056,0,0,0,1.000,1.000,1.000,-90.00,180.00,0.00,OPEN,0
667626.106,0,0,0,1.000,1.000,1.000,-90.00,180.00,0.00,OPEN,0
667626.156,0,0,0,1.000,1.000,1.000,-90.00,180.00,0.00,OPEN,0
667626.206,0,0,0,1.000,1.000,1.000,-90.00,180.00,0.00,OPEN,0
667626.256,0,0,0,1.000,1.000,1.000,-90.00,180.00,0.00,OPEN,0
667626.305,0,0,0,1.000,1.000,1.000,-90.00,180.00,0.00,OPEN,0
667626.357,0,0,0,1.000,1.000,1.000,-90.00,180.00,0.00,OPEN,0
667626.405,0,0,0,1.000,1.000,1.000,-90.00,180.00,0.00,OPEN,0
667626.456,0,0,0,1.000,1.000,1.000,-90.00,180.00,0.00,OPEN,0
667626.506,0,0,0,1.000,1.000,1.000,-90.00,180.00,0.00,OPEN,0
667626.555,0,0,0,1.000,1.000,1.000,-90.00,180.00,0.00,OPEN,0
667626.606,0,0,0,0.999,1.000,1.000,-90.00,180.00,0.00,OPEN,0
667626.656,0,0,0,0.997,1.000,1.000,-90.00,180.00,0.00,OPEN,0
667626.706,0,0,0,0.997,1.000,1.000,-90.00,180.00,0.00,OPEN,0
667626.755,0,0,0,0.991,1.000,1.000,-90.00,180.00,0.00,OPEN,0
667626.806,0,0,0,0.989,1.000,1.000,-90.00,180.00,0.00,OPEN,0
667626.856,0,0,0,0.999,1.000,1.000,-90.00,180.00,0.00,OPEN,0
667626.906,0,0,0,1.000,1.000,1.000,-90.00,180.00,0.00,OPEN,0
667626.955,0,0,0,1.000,1.000,1.000,-90.00,180.00,0.00,OPEN,0
667627.005,0,0,0,1.000,1.000,1.000,-90.00,180.00,0.00,OPEN,0
667627.056,0,0,0,1.000,1.000,1.000,-90.00,180.00,0.00,OPEN,0
667627.106,0,0,0,1.000,1.000,1.000,-90.00,180.00,0.00,OPEN,0
667627.156,0,0,0,1.000,1.000,1.000,-90.00,180.00,0.00,OPEN,0
667627.206,0,0,0,1.000,1.000,1.000,-90.00,180.00,0.00,OPEN,0
667627.256,0,0,0,1.000,1.000,1.000,-90.00,180.00,0.00,OPEN,0
667627.306,0,0,0,1.000,1.000,1.000,-90.00,180.00,0.00,OPEN,0
667627.356,0,0,0,1.000,1.000,1.000,-90.00,180.00,0.00,OPEN,0
667627.406,0,0,0,1.000,1.000,1.000,-90.00,180.00,0.00,OPEN,0
667627.456,0,0,0,1.000,1.000,1.000,-90.00,180.00,0.00,OPEN,0
667627.506,0,0,0,1.000,1.000,1.000,-90.00,180.00,0.00,OPEN,0
667627.556,0,0,0,1.000,1.000,1.000,-90.00,180.00,0.00,OPEN,0
667627.609,0,0,0,1.000,1.000,1.000,-90.00,180.00,0.00,OPEN,0
667627.656,0,0,0,1.000,1.000,1.000,-90.00,180.00,0.00,OPEN,0
667627.706,0,0,0,1.000,1.000,1.000,-90.00,180.00,0.00,OPEN,0
667627.756,0,0,0,1.000,1.000,1.000,-90.00,180.00,0.00,OPEN,0
667627.806,0,0,0,1.000,1.000,1.000,-90.00,180.00,0.00,OPEN,0
667627.856,0,0,0,1.000,1.000,1.000,-90.00,180.00,0.00,OPEN,0
667627.906,0,0,0,1.000,1.000,1.000,-90.00,180.00,0.00,OPEN,0
667627.956,0,0,0,1.000,1.000,1.000,-90.00,180.00,0.00,OPEN,0
667628.006,0,0,0,1.000,1.000,1.000,-90.00,180.00,0.00,OPEN,0
667628.056,0,0,0,1.000,1.000,1.000,-90.00,180.00,0.00,OPEN,0
667628.106,0,0,0,1.000,1.000,1.000,-90.00,180.00,0.00,OPEN,0
667628.156,0,0,0,1.000,1.000,1.000,-90.00,180.00,0.00,OPEN,0
667628.206,0,0,0,0.863,1.000,1.000,-90.00,180.00,0.00,OPEN,0
667628.256,0,0,0,0.956,1.000,1.000,-90.00,180.00,0.00,OPEN,0
667628.306,0,0,0,0.993,1.000,1.000,-90.00,180.00,0.00,OPEN,0
667628.356,0,0,0,0.993,1.000,1.000,-90.00,180.00,0.00,OPEN,0
667628.406,0,0,0,0.970,1.000,1.000,-90.00,180.00,0.00,OPEN,0
667628.457,0,0,0,0.616,1.000,1.000,-90.00,180.00,0.00,OPEN,0
667628.506,0,0,0,0.909,1.000,1.000,-90.00,180.00,0.00,OPEN,0
667628.556,0,0,0,0.990,1.000,1.000,-90.00,180.00,0.00,OPEN,0
667628.606,0,0,0,0.994,1.000,1.000,-90.00,180.00,0.00,OPEN,0
667628.656,0,0,0,0.995,1.000,1.000,-90.00,180.00,0.00,OPEN,0
667628.705,0,0,0,0.996,1.000,1.000,-90.00,180.00,0.00,OPEN,0
667628.756,0,0,0,0.995,1.000,1.000,-90.00,180.00,0.00,OPEN,0
667628.806,0,0,0,0.993,1.000,1.000,-90.00,180.00,0.00,OPEN,0
667628.855,3,0,0,0.990,1.000,1.000,-90.00,180.00,0.00,OPEN,0
667628.906,3,0,0,0.985,1.000,1.000,-90.00,180.00,0.00,OPEN,0
667628.956,3,0,0,0.983,1.000,1.000,-90.00,180.00,0.00,OPEN,0
667629.005,3,0,0,0.985,1.000,1.000,-90.00,180.00,0.00,OPEN,0
667629.056,3,0,0,0.989,1.000,1.000,-90.00,180.00,0.00,OPEN,0
667629.106,3,0,0,0.995,1.000,1.000,-90.00,180.00,0.00,OPEN,0
667629.159,3,0,0,0.997,1.000,1.000,-90.00,180.00,0.00,OPEN,0
667629.206,3,0,0,0.999,1.000,1.000,-90.00,180.00,0.00,OPEN,0
667629.256,3,0,0,0.999,1.000,1.000,-90.00,180.00,0.00,OPEN,0
667629.305,3,0,0,1.000,1.000,1.000,-90.00,180.00,0.00,OPEN,0
667629.355,3,0,0,1.000,1.000,1.000,-90.00,180.00,0.00,OPEN,0
667629.406,3,0,0,1.000,1.000,1.000,-90.00,180.00,0.00,OPEN,0
667629.456,3,0,0,1.000,1.000,1.000,-90.00,180.00,0.00,OPEN,0
667629.506,3,0,0,1.000,1.000,1.000,-90.00,180.00,0.00,OPEN,0
667629.556,3,0,0,1.000,1.000,1.000,-90.00,180.00,0.00,OPEN,0
667629.606,3,0,0,1.000,1.000,1.000,-90.00,180.00,0.00,OPEN,0
667629.656,3,0,0,1.000,1.000,1.000,-90.00,180.00,0.00,OPEN,0
667629.705,3,0,0,1.000,1.000,1.000,-90.00,180.00,0.00,OPEN,0
667629.756,3,0,0,1.000,1.000,1.000,-90.00,180.00,0.00,OPEN,0
667629.806,3,0,0,1.000,1.000,1.000,-90.00,180.00,0.00,OPEN,0
667629.856,3,0,0,1.000,1.000,1.000,-90.00,180.00,0.00,OPEN,0
667629.906,3,0,0,1.000,1.000,1.000,-90.00,180.00,0.00,OPEN,0
667629.956,3,0,0,1.000,1.000,1.000,-90.00,180.00,0.00,OPEN,0
667630.006,3,0,0,1.000,1.000,1.000,-90.00,180.00,0.00,OPEN,0
667630.055,3,0,0,1.000,1.000,1.000,-90.00,180.00,0.00,OPEN,0
667630.106,3,0,0,0.999,1.000,1.000,-90.00,180.00,0.00,OPEN,0
667630.156,3,0,0,0.997,1.000,1.000,-90.00,180.00,0.00,OPEN,0
667630.206,3,0,0,0.992,1.000,1.000,-90.00,180.00,0.00,OPEN,0
667630.256,3,0,0,0.987,1.000,1.000,-90.00,180.00,0.00,OPEN,0
667630.306,3,0,0,0.985,1.000,1.000,-90.00,180.00,0.00,OPEN,0
667630.356,3,0,0,0.989,1.000,1.000,-90.00,180.00,0.00,OPEN,0
667630.406,3,0,0,0.993,1.000,1.000,-90.00,180.00,0.00,OPEN,0
667630.456,3,0,0,0.996,1.000,1.000,-90.00,180.00,0.00,OPEN,0
667630.506,3,0,0,0.997,1.000,1.000,-90.00,180.00,0.00,OPEN,0
667630.556,3,0,0,0.998,1.000,1.000,-90.00,180.00,0.00,OPEN,0
667630.606,3,0,0,0.998,1.000,1.000,-90.00,180.00,0.00,OPEN,0
667630.656,3,0,0,0.999,1.000,1.000,-90.00,180.00,0.00,OPEN,0
667630.706,3,0,0,0.999,1.000,1.000,-90.00,180.00,0.00,OPEN,0
667630.756,3,0,0,0.999,1.000,1.000,-90.00,180.00,0.00,OPEN,0
667630.806,3,0,0,1.000,1.000,1.000,-90.00,180.00,0.00,OPEN,0
667630.855,3,0,0,1.000,1.000,1.000,-90.00,180.00,0.00,OPEN,0
667630.906,3,0,0,1.000,1.000,1.000,-90.00,180.00,0.00,OPEN,0
667630.956,3,0,0,1.000,1.000,1.000,-90.00,180.00,0.00,OPEN,0
667631.006,3,0,0,1.000,1.000,1.000,-90.00,180.00,0.00,OPEN,0
667631.062,3,0,0,1.000,1.000,1.000,-90.00,180.00,0.00,OPEN,0
667631.106,3,0,0,1.000,1.000,1.000,-90.00,180.00,0.00,OPEN,0
667631.156,3,0,0,1.000,1.000,1.000,-90.00,180.00,0.00,OPEN,0
667631.206,3,0,0,1.000,1.000,1.000,-90.00,180.00,0.00,OPEN,0
667631.256,3,0,0,1.000,1.000,1.000,-90.00,180.00,0.00,OPEN,0
667631.306,3,0,0,1.000,1.000,1.000,-90.00,180.00,0.00,OPEN,0
667631.356,3,0,0,1.000,1.000,1.000,-90.00,180.00,0.00,OPEN,0
667631.406,3,0,0,1.000,1.000,1.000,-90.00,180.00,0.00,OPEN,0
667631.455,3,0,0,1.000,1.000,1.000,-90.00,180.00,0.00,OPEN,0
667631.506,3,0,0,1.000,1.000,1.000,-90.00,180.00,0.00,OPEN,0
667631.556,3,0,0,1.000,1.000,1.000,-90.00,180.00,0.00,OPEN,0
667631.606,3,0,0,1.000,1.000,1.000,-90.00,180.00,0.00,OPEN,0
667631.656,3,0,0,1.000,1.000,1.000,-90.00,180.00,0.00,OPEN,0
667631.706,3,0,0,1.000,1.000,1.000,-90.00,180.00,0.00,OPEN,0
667631.756,3,0,0,1.000,1.000,1.000,-90.00,180.00,0.00,OPEN,0
667631.805,3,0,0,1.000,1.000,1.000,-90.00,180.00,0.00,OPEN,0
667631.855,3,0,0,1.000,1.000,1.000,-90.00,180.00,0.00,OPEN,0
667631.906,3,0,0,1.000,1.000,1.000,-90.00,180.00,0.00,OPEN,0
667631.956,3,0,0,1.000,1.000,1.000,-90.00,180.00,0.00,OPEN,0
667632.005,3,0,0,1.000,1.000,1.000,-90.00,180.00,0.00,OPEN,0
667632.055,3,0,0,1.000,1.000,1.000,-90.00,180.00,0.00,OPEN,0
667632.106,3,0,0,1.000,1.000,1.000,-90.00,180.00,0.00,OPEN,0
667632.155,3,0,0,1.000,1.000,1.000,-90.00,180.00,0.00,OPEN,0
667632.206,3,0,0,1.000,1.000,1.000,-90.00,180.00,0.00,OPEN,0
667632.256,3,0,0,1.000,1.000,1.000,-90.00,180.00,0.00,OPEN,0
667632.306,3,0,0,1.000,1.000,1.000,-90.00,180.00,0.00,OPEN,0
667632.356,3,0,0,1.000,1.000,1.000,-90.00,180.00,0.00,OPEN,0
667632.406,3,0,0,1.000,1.000,1.000,-90.00,180.00,0.00,OPEN,0
667632.456,3,0,0,1.000,1.000,1.000,-90.00,180.00,0.00,OPEN,0
667632.506,3,0,0,1.000,1.000,1.000,-90.00,180.00,0.00,OPEN,0
667632.555,3,0,0,1.000,1.000,1.000,-90.00,180.00,0.00,OPEN,0
667632.606,3,0,0,1.000,1.000,1.000,-90.00,180.00,0.00,OPEN,0
667632.656,3,0,0,1.000,1.000,1.000,-90.00,180.00,0.00,OPEN,0
667632.706,3,0,0,1.000,1.000,1.000,-90.00,180.00,0.00,OPEN,0
667632.764,3,0,0,1.000,1.000,1.000,-90.00,180.00,0.00,OPEN,0
667632.806,3,0,0,1.000,1.000,1.000,-90.00,180.00,0.00,OPEN,0
667632.856,3,0,0,1.000,1.000,1.000,-90.00,180.00,0.00,OPEN,0
667632.905,3,0,0,1.000,1.000,1.000,-90.00,180.00,0.00,OPEN,0
667632.956,3,0,0,1.000,1.000,1.000,-90.00,180.00,0.00,OPEN,0
667633.006,3,0,0,1.000,1.000,1.000,-90.00,180.00,0.00,OPEN,0
667633.056,3,0,0,1.000,1.000,1.000,-90.00,180.00,0.00,OPEN,0
667633.106,3,0,0,1.000,1.000,1.000,-90.00,180.00,0.00,OPEN,0
667633.156,3,0,0,1.000,1.000,1.000,-90.00,180.00,0.00,OPEN,0
667633.206,3,0,0,1.000,1.000,1.000,-90.00,180.00,0.00,OPEN,0
667633.255,3,0,0,1.000,1.000,1.000,-90.00,180.00,0.00,OPEN,0
667633.306,3,0,0,1.000,1.000,1.000,-90.00,180.00,0.00,OPEN,0
667633.356,3,0,0,1.000,1.000,1.000,-90.00,180.00,0.00,OPEN,0
667633.406,3,0,0,1.000,1.000,1.000,-90.00,180.00,0.00,OPEN,0
667633.456,3,0,0,1.000,1.000,1.000,-90.00,180.00,0.00,OPEN,0
667633.505,3,0,0,0.999,1.000,1.000,-90.00,180.00,0.00,OPEN,0
667633.556,3,0,0,0.999,1.000,1.000,-90.00,180.00,0.00,OPEN,0
667633.605,3,0,0,0.999,1.000,1.000,-90.00,180.00,0.00,OPEN,0
667633.655,3,0,0,1.000,1.000,1.000,-90.00,180.00,0.00,OPEN,0
667633.705,3,0,0,1.000,1.000,1.000,-90.00,180.00,0.00,OPEN,0
667633.756,3,0,0,1.000,1.000,1.000,-90.00,180.00,0.00,OPEN,0
667633.805,3,0,0,1.000,1.000,1.000,-90.00,180.00,0.00,OPEN,0
667633.856,3,0,0,1.000,1.000,1.000,-90.00,180.00,0.00,OPEN,0
667633.906,3,0,0,1.000,1.000,1.000,-90.00,180.00,0.00,OPEN,0
667633.956,3,0,0,1.000,1.000,1.000,-90.00,180.00,0.00,OPEN,0
667634.005,3,0,0,1.000,1.000,1.000,-90.00,180.00,0.00,OPEN,0
667634.056,3,0,0,1.000,1.000,1.000,-90.00,180.00,0.00,OPEN,0
667634.106,3,0,0,1.000,1.000,1.000,-90.00,180.00,0.00,OPEN,0
667634.156,3,0,0,1.000,1.000,1.000,-90.00,180.00,0.00,OPEN,0
667634.206,3,0,0,1.000,1.000,1.000,-90.00,180.00,0.00,OPEN,0
667634.256,3,0,0,1.000,1.000,1.000,-90.00,180.00,0.00,OPEN,0
667634.306,3,0,0,1.000,1.000,1.000,-90.00,180.00,0.00,OPEN,0
667634.356,3,0,0,1.000,1.000,1.000,-90.00,180.00,0.00,OPEN,0
667634.406,3,0,0,1.000,1.000,1.000,-90.00,180.00,0.00,OPEN,0
667634.456,3,0,0,0.984,1.000,1.000,-90.00,180.00,0.00,OPEN,0
667634.511,3,0,0,0.751,1.000,1.000,-90.00,180.00,0.00,OPEN,0
667634.556,3,0,0,0.676,1.000,1.000,-90.00,180.00,0.00,OPEN,0
667634.606,3,0,0,0.897,1.000,1.000,-90.00,180.00,0.00,OPEN,0
667634.656,3,0,0,0.933,1.000,1.000,-90.00,180.00,0.00,OPEN,0
667634.706,3,0,0,0.995,1.000,1.000,-90.00,180.00,0.00,OPEN,0
667634.756,3,0,0,1.000,1.000,1.000,-90.00,180.00,0.00,OPEN,0
667634.806,3,0,0,1.000,1.000,1.000,-90.00,180.00,0.00,OPEN,0
667634.856,3,0,0,1.000,1.000,1.000,-90.00,180.00,0.00,OPEN,0
667634.906,3,0,0,1.000,1.000,1.000,-90.00,180.00,0.00,OPEN,0
667634.956,0,0,0,1.000,1.000,1.000,-90.00,180.00,0.00,OPEN,0
667635.006,0,0,0,1.000,1.000,1.000,-90.00,180.00,0.00,OPEN,0
667635.056,0,0,0,1.000,1.000,1.000,-90.00,180.00,0.00,OPEN,0
667635.106,0,0,0,1.000,1.000,1.000,-90.00,180.00,0.00,OPEN,0
667635.156,0,0,0,1.000,1.000,1.000,-90.00,180.00,0.00,OPEN,0
667635.206,0,0,0,1.000,1.000,1.000,-90.00,180.00,0.00,OPEN,0
667635.256,0,0,0,1.000,1.000,1.000,-90.00,180.00,0.00,OPEN,0
667635.306,0,0,0,1.000,1.000,1.000,-90.00,180.00,0.00,OPEN,0
667635.356,0,0,0,1.000,1.000,1.000,-90.00,180.00,0.00,OPEN,0
667635.405,0,0,0,1.000,1.000,1.000,-90.00,180.00,0.00,OPEN,0
667635.456,0,0,0,1.000,1.000,1.000,-90.00,180.00,0.00,OPEN,0
667635.506,0,0,0,1.000,1.000,1.000,-90.00,180.00,0.00,OPEN,0
667635.555,0,0,0,1.000,1.000,1.000,-90.00,180.00,0.00,OPEN,0
667635.606,0,0,0,1.000,1.000,1.000,-90.00,180.00,0.00,OPEN,0
667635.656,0,0,0,1.000,1.000,1.000,-90.00,180.00,0.00,OPEN,0
667635.706,0,0,0,1.000,1.000,1.000,-90.00,180.00,0.00,OPEN,0
667635.756,0,0,0,1.000,1.000,1.000,-90.00,180.00,0.00,OPEN,0
667635.806,0,0,0,1.000,1.000,1.000,-90.00,180.00,0.00,OPEN,0
667635.856,0,0,0,1.000,1.000,1.000,-90.00,180.00,0.00,OPEN,0
667635.906,0,0,0,1.000,1.000,1.000,-90.00,180.00,0.00,OPEN,0
667635.956,0,0,0,1.000,1.000,1.000,-90.00,180.00,0.00,OPEN,0
667636.015,0,0,0,1.000,1.000,1.000,-90.00,180.00,0.00,OPEN,0
667636.056,0,0,0,1.000,1.000,1.000,-90.00,180.00,0.00,OPEN,0
667636.106,0,0,0,1.000,1.000,1.000,-90.00,180.00,0.00,OPEN,0
667636.156,0,0,0,1.000,1.000,1.000,-90.00,180.00,0.00,OPEN,0
667636.206,0,0,0,1.000,1.000,1.000,-90.00,180.00,0.00,OPEN,0
667636.256,0,0,0,1.000,1.000,1.000,-90.00,180.00,0.00,OPEN,0
667636.305,0,0,0,1.000,1.000,1.000,-90.00,180.00,0.00,OPEN,0
667636.356,0,0,0,1.000,1.000,1.000,-90.00,180.00,0.00,OPEN,0
667636.406,0,0,0,1.000,1.000,1.000,-90.00,180.00,0.00,OPEN,0
667636.456,0,0,0,1.000,1.000,1.000,-90.00,180.00,0.00,OPEN,0
667636.506,0,0,0,1.000,1.000,1.000,-90.00,180.00,0.00,OPEN,0
667636.556,0,0,0,1.000,1.000,1.000,-90.00,180.00,0.00,OPEN,0
667636.606,0,0,0,1.000,1.000,1.000,-90.00,180.00,0.00,OPEN,0
667636.656,0,0,0,1.000,1.000,1.000,-90.00,180.00,0.00,OPEN,0
667636.706,0,0,0,1.000,1.000,1.000,-90.00,180.00,0.00,OPEN,0
667636.756,0,0,0,1.000,1.000,1.000,-90.00,180.00,0.00,OPEN,0
667636.805,0,0,0,1.000,1.000,1.000,-90.00,180.00,0.00,OPEN,0
667636.856,0,0,0,1.000,1.000,1.000,-90.00,180.00,0.00,OPEN,0
667636.907,0,0,0,1.000,1.000,1.000,-90.00,180.00,0.00,OPEN,0
667636.955,0,0,0,1.000,1.000,1.000,-90.00,180.00,0.00,OPEN,0
667637.006,0,0,0,1.000,1.000,1.000,-90.00,180.00,0.00,OPEN,0
667637.056,0,0,0,1.000,1.000,1.000,-90.00,180.00,0.00,OPEN,0
667637.106,0,0,0,1.000,1.000,1.000,-90.00,180.00,0.00,OPEN,0
667637.156,0,0,0,1.000,1.000,1.000,-90.00,180.00,0.00,OPEN,0
667637.205,0,0,0,1.000,1.000,1.000,-90.00,180.00,0.00,OPEN,0
667637.256,0,0,0,1.000,1.000,1.000,-90.00,180.00,0.00,OPEN,0
667637.306,0,0,0,1.000,1.000,1.000,-90.00,180.00,0.00,OPEN,0
667637.356,0,0,0,1.000,1.000,1.000,-90.00,180.00,0.00,OPEN,0
667637.406,0,0,0,1.000,1.000,1.000,-90.00,180.00,0.00,OPEN,0
667637.456,0,0,0,1.000,1.000,1.000,-90.00,180.00,0.00,OPEN,0
667637.506,0,0,0,1.000,1.000,1.000,-90.00,180.00,0.00,OPEN,0
667637.556,0,0,0,1.000,1.000,1.000,-90.00,180.00,0.00,OPEN,0
667637.606,0,0,0,1.000,1.000,1.000,-90.00,180.00,0.00,OPEN,0
667637.656,0,0,0,1.000,1.000,1.000,-90.00,180.00,0.00,OPEN,0
667637.706,0,0,0,1.000,1.000,1.000,-90.00,180.00,0.00,OPEN,0
667637.756,0,0,0,1.000,1.000,1.000,-90.00,180.00,0.00,OPEN,0
667637.805,0,0,0,1.000,1.000,1.000,-90.00,180.00,0.00,OPEN,0
667637.856,0,0,0,1.000,1.000,1.000,-90.00,180.00,0.00,OPEN,0
667637.906,0,0,0,1.000,1.000,1.000,-90.00,180.00,0.00,OPEN,0
667637.955,0,0,0,1.000,1.000,1.000,-90.00,180.00,0.00,OPEN,0
667638.006,0,0,0,1.000,1.000,1.000,-90.00,180.00,0.00,OPEN,0
667638.055,0,0,0,1.000,1.000,1.000,-90.00,180.00,0.00,OPEN,0
667638.114,0,0,0,1.000,1.000,1.000,-90.00,180.00,0.00,OPEN,0
667638.156,0,0,0,1.000,1.000,1.000,-90.00,180.00,0.00,OPEN,0
667638.206,0,0,0,1.000,1.000,1.000,-90.00,180.00,0.00,OPEN,0
667638.256,0,0,0,1.000,1.000,1.000,-90.00,180.00,0.00,OPEN,0
667638.305,0,0,0,1.000,1.000,1.000,-90.00,180.00,0.00,OPEN,0
667638.356,0,0,0,1.000,1.000,1.000,-90.00,180.00,0.00,OPEN,0
667638.406,0,0,0,1.000,1.000,1.000,-90.00,180.00,0.00,OPEN,0
667638.456,0,0,0,1.000,1.000,1.000,-90.00,180.00,0.00,OPEN,0
667638.505,0,0,0,1.000,1.000,1.000,-90.00,180.00,0.00,OPEN,0
667638.556,0,0,0,1.000,1.000,1.000,-90.00,180.00,0.00,OPEN,0
667638.606,0,0,0,1.000,1.000,1.000,-90.00,180.00,0.00,OPEN,0
667638.656,0,0,0,1.000,1.000,1.000,-90.00,180.00,0.00,OPEN,0
667638.705,0,0,0,1.000,1.000,1.000,-90.00,180.00,0.00,OPEN,0
667638.755,0,0,0,1.000,1.000,1.000,-90.00,180.00,0.00,OPEN,0
667638.805,0,0,0,1.000,1.000,1.000,-90.00,180.00,0.00,OPEN,0
667638.856,0,0,0,1.000,1.000,1.000,-90.00,180.00,0.00,OPEN,0
667638.905,0,0,0,1.000,1.000,1.000,-90.00,180.00,0.00,OPEN,0
667638.956,0,0,0,1.000,1.000,1.000,-90.00,180.00,0.00,OPEN,0
667639.006,0,0,0,1.000,1.000,1.000,-90.00,180.00,0.00,OPEN,0
667639.055,0,0,0,1.000,1.000,1.000,-90.00,180.00,0.00,OPEN,0
667639.106,0,0,0,1.000,1.000,1.000,-90.00,180.00,0.00,OPEN,0
667639.155,0,0,0,1.000,1.000,1.000,-90.00,180.00,0.00,OPEN,0
667639.206,0,0,0,1.000,1.000,1.000,-90.00,180.00,0.00,OPEN,0
667639.256,0,0,0,1.000,1.000,1.000,-90.00,180.00,0.00,OPEN,0
667639.306,0,0,0,1.000,1.000,1.000,-90.00,180.00,0.00,OPEN,0
667639.356,0,0,0,1.000,1.000,1.000,-90.00,180.00,0.00,OPEN,0
667639.406,0,0,0,1.000,1.000,1.000,-90.00,180.00,0.00,OPEN,0
667639.456,0,0,0,1.000,1.000,1.000,-90.00,180.00,0.00,OPEN,0
667639.506,0,0,0,1.000,1.000,1.000,-90.00,180.00,0.00,OPEN,0
667639.557,0,0,0,1.000,1.000,1.000,-90.00,180.00,0.00,OPEN,0
667639.606,0,0,0,1.000,1.000,1.000,-90.00,180.00,0.00,OPEN,0
667639.656,0,0,0,1.000,1.000,1.000,-90.00,180.00,0.00,OPEN,0
667639.705,0,0,0,1.000,1.000,1.000,-90.00,180.00,0.00,OPEN,0
667639.756,0,0,0,1.000,1.000,1.000,-90.00,180.00,0.00,OPEN,0
667639.806,0,0,0,1.000,1.000,1.000,-90.00,180.00,0.00,OPEN,0
667639.864,0,0,0,1.000,1.000,1.000,-90.00,180.00,0.00,OPEN,0
667639.907,0,0,0,1.000,1.000,1.000,-90.00,180.00,0.00,OPEN,0
667639.956,0,0,0,1.000,1.000,1.000,-90.00,180.00,0.00,OPEN,0
667640.006,0,0,0,1.000,1.000,1.000,-90.00,180.00,0.00,OPEN,0
667640.056,0,0,0,1.000,1.000,1.000,-90.00,180.00,0.00,OPEN,0
667640.106,0,0,0,1.000,1.000,1.000,-90.00,180.00,0.00,OPEN,0
667640.156,0,0,0,1.000,1.000,1.000,-90.00,180.00,0.00,OPEN,0
667640.207,0,0,0,1.000,1.000,1.000,-90.00,180.00,0.00,OPEN,0
667640.256,0,0,0,1.000,1.000,1.000,-90.00,180.00,0.00,OPEN,0
667640.306,0,0,0,1.000,1.000,1.000,-90.00,180.00,0.00,OPEN,0
667640.356,0,0,0,1.000,1.000,1.000,-90.00,180.00,0.00,OPEN,0
667640.406,0,0,0,1.000,1.000,1.000,-90.00,180.00,0.00,OPEN,0
667640.456,0,0,0,1.000,1.000,1.000,-90.00,180.00,0.00,OPEN,0
667640.506,0,0,0,1.000,1.000,1.000,-90.00,180.00,0.00,OPEN,0
667640.556,0,0,0,1.000,1.000,1.000,-90.00,180.00,0.00,OPEN,0
667640.605,0,0,0,1.000,1.000,1.000,-90.00,180.00,0.00,OPEN,0
667640.655,0,0,0,1.000,1.000,1.000,-90.00,180.00,0.00,OPEN,0
667640.706,0,0,0,1.000,1.000,1.000,-90.00,180.00,0.00,OPEN,0
667640.756,0,0,0,1.000,1.000,1.000,-90.00,180.00,0.00,OPEN,0
667640.806,0,0,0,1.000,1.000,1.000,-90.00,180.00,0.00,OPEN,0
667640.856,0,0,0,1.000,1.000,1.000,-90.00,180.00,0.00,OPEN,0
667640.905,0,0,0,1.000,1.000,1.000,-90.00,180.00,0.00,OPEN,0
667640.955,0,0,0,1.000,1.000,1.000,-90.00,180.00,0.00,OPEN,0
667641.006,0,0,0,1.000,1.000,1.000,-90.00,180.00,0.00,OPEN,0
667641.055,0,0,0,1.000,1.000,1.000,-90.00,180.00,0.00,OPEN,0
667641.105,0,0,0,1.000,1.000,1.000,-90.00,180.00,0.00,OPEN,0
667641.156,0,0,0,1.000,1.000,1.000,-90.00,180.00,0.00,OPEN,0
667641.206,0,0,0,1.000,1.000,1.000,-90.00,180.00,0.00,OPEN,0
667641.256,0,0,0,1.000,1.000,1.000,-90.00,180.00,0.00,OPEN,0
667641.306,0,0,0,1.000,1.000,1.000,-90.00,180.00,0.00,OPEN,0
667641.356,0,0,0,1.000,1.000,1.000,-90.00,180.00,0.00,OPEN,0
667641.406,0,0,0,1.000,1.000,1.000,-90.00,180.00,0.00,OPEN,0
667641.456,0,0,0,1.000,1.000,1.000,-90.00,180.00,0.00,OPEN,0
667641.506,0,0,0,1.000,1.000,1.000,-90.00,180.00,0.00,OPEN,0
667641.562,0,0,0,1.000,1.000,1.000,-90.00,180.00,0.00,OPEN,0
667641.606,0,0,0,1.000,1.000,1.000,-90.00,180.00,0.00,OPEN,0
667641.655,0,0,0,1.000,1.000,1.000,-90.00,180.00,0.00,OPEN,0
667641.706,0,0,0,1.000,1.000,1.000,-90.00,180.00,0.00,OPEN,0
667641.756,0,0,0,1.000,1.000,1.000,-90.00,180.00,0.00,OPEN,0
667641.806,0,0,0,1.000,1.000,1.000,-90.00,180.00,0.00,OPEN,0
667641.856,0,0,0,1.000,1.000,1.000,-90.00,180.00,0.00,OPEN,0
667641.906,0,0,0,1.000,1.000,1.000,-90.00,180.00,0.00,OPEN,0
667641.956,0,0,0,1.000,1.000,1.000,-90.00,180.00,0.00,OPEN,0
667642.006,0,0,0,1.000,1.000,1.000,-90.00,180.00,0.00,OPEN,0
667642.056,0,0,0,1.000,1.000,1.000,-90.00,180.00,0.00,OPEN,0
667642.105,0,0,0,1.000,1.000,1.000,-90.00,180.00,0.00,OPEN,0
667642.156,0,0,0,1.000,1.000,1.000,-90.00,180.00,0.00,OPEN,0
667642.206,0,0,0,1.000,1.000,1.000,-90.00,180.00,0.00,OPEN,0
667642.256,0,0,0,1.000,1.000,1.000,-90.00,180.00,0.00,OPEN,0
667642.306,0,0,0,1.000,1.000,1.000,-90.00,180.00,0.00,OPEN,0
667642.356,0,0,0,1.000,1.000,1.000,-90.00,180.00,0.00,OPEN,0
667642.406,0,0,0,1.000,1.000,1.000,-90.00,180.00,0.00,OPEN,0
667642.456,0,0,0,1.000,1.000,1.000,-90.00,180.00,0.00,OPEN,0
667642.506,0,0,0,1.000,1.000,1.000,-90.00,180.00,0.00,OPEN,0
667642.556,0,0,0,1.000,1.000,1.000,-90.00,180.00,0.00,OPEN,0
667642.606,0,0,0,1.000,1.000,1.000,-90.00,180.00,0.00,OPEN,0
667642.656,0,0,0,1.000,1.000,1.000,-90.00,180.00,0.00,OPEN,0
667642.706,0,0,0,1.000,1.000,1.000,-90.00,180.00,0.00,OPEN,0
667642.756,0,0,0,1.000,1.000,1.000,-90.00,180.00,0.00,OPEN,0
667642.806,0,0,0,1.000,1.000,1.000,-90.00,180.00,0.00,OPEN,0
667642.856,0,0,0,1.000,1.000,1.000,-90.00,180.00,0.00,OPEN,0
667642.906,0,0,0,1.000,1.000,1.000,-90.00,180.00,0.00,OPEN,0
667642.955,0,0,0,1.000,1.000,1.000,-90.00,180.00,0.00,OPEN,0
667643.006,0,0,0,1.000,1.000,1.000,-90.00,180.00,0.00,OPEN,0
667643.056,0,0,0,1.000,1.000,1.000,-90.00,180.00,0.00,OPEN,0
667643.105,0,0,0,1.000,1.000,1.000,-90.00,180.00,0.00,OPEN,0
667643.156,0,0,0,1.000,1.000,1.000,-90.00,180.00,0.00,OPEN,0
667643.206,0,0,0,1.000,1.000,1.000,-90.00,180.00,0.00,OPEN,0
667643.256,0,0,0,1.000,1.000,1.000,-90.00,180.00,0.00,OPEN,0
667643.312,0,0,0,1.000,1.000,1.000,-90.00,180.00,0.00,OPEN,0
667643.356,0,0,0,1.000,1.000,1.000,-90.00,180.00,0.00,OPEN,0
667643.405,0,0,0,1.000,1.000,1.000,-90.00,180.00,0.00,OPEN,0
667643.455,0,0,0,1.000,1.000,1.000,-90.00,180.00,0.00,OPEN,0
667643.506,0,0,0,1.000,1.000,1.000,-90.00,180.00,0.00,OPEN,0
667643.556,0,0,0,1.000,1.000,1.000,-90.00,180.00,0.00,OPEN,0
667643.606,0,0,0,1.000,1.000,1.000,-90.00,180.00,0.00,OPEN,0
667643.656,0,0,0,1.000,1.000,1.000,-90.00,180.00,0.00,OPEN,0
667643.706,0,0,0,1.000,1.000,1.000,-90.00,180.00,0.00,OPEN,0
667643.756,0,0,0,1.000,1.000,1.000,-90.00,180.00,0.00,OPEN,0
667643.805,0,0,0,1.000,1.000,1.000,-90.00,180.00,0.00,OPEN,0
667643.856,0,0,0,1.000,1.000,1.000,-90.00,180.00,0.00,OPEN,0
667643.906,0,0,0,1.000,1.000,1.000,-90.00,180.00,0.00,OPEN,0
667643.956,0,0,0,1.000,1.000,1.000,-90.00,180.00,0.00,OPEN,0
667644.006,0,0,0,1.000,1.000,1.000,-90.00,180.00,0.00,OPEN,0
667644.056,0,0,0,1.000,1.000,1.000,-90.00,180.00,0.00,OPEN,0
667644.106,0,0,0,1.000,1.000,1.000,-90.00,180.00,0.00,OPEN,0
667644.155,0,0,0,1.000,1.000,1.000,-90.00,180.00,0.00,OPEN,0
667644.206,0,0,0,1.000,1.000,1.000,-90.00,180.00,0.00,OPEN,0
667644.256,0,0,0,1.000,1.000,1.000,-90.00,180.00,0.00,OPEN,0
667644.306,0,0,0,1.000,1.000,1.000,-90.00,180.00,0.00,OPEN,0
667644.356,0,0,0,1.000,1.000,1.000,-90.00,180.00,0.00,OPEN,0
667644.406,0,0,0,1.000,1.000,1.000,-90.00,180.00,0.00,OPEN,0
667644.456,0,0,0,1.000,1.000,1.000,-90.00,180.00,0.00,OPEN,0
667644.506,0,0,0,1.000,1.000,1.000,-90.00,180.00,0.00,OPEN,0
667644.556,0,0,0,1.000,1.000,1.000,-90.00,180.00,0.00,OPEN,0
667644.606,0,0,0,1.000,1.000,1.000,-90.00,180.00,0.00,OPEN,0
667644.656,0,0,0,1.000,1.000,1.000,-90.00,180.00,0.00,OPEN,0
667644.706,0,0,0,1.000,1.000,1.000,-90.00,180.00,0.00,OPEN,0
667644.756,0,0,0,1.000,1.000,1.000,-90.00,180.00,0.00,OPEN,0
667644.806,0,0,0,1.000,1.000,1.000,-90.00,180.00,0.00,OPEN,0
667644.856,0,0,0,1.000,1.000,1.000,-90.00,180.00,0.00,OPEN,0
667644.906,0,0,0,1.000,1.000,1.000,-90.00,180.00,0.00,OPEN,0
667644.955,0,0,0,1.000,1.000,1.000,-90.00,180.00,0.00,OPEN,0
667645.005,0,0,0,1.000,1.000,1.000,-90.00,180.00,0.00,OPEN,0
667645.061,0,0,0,1.000,1.000,1.000,-90.00,180.00,0.00,OPEN,0
667645.106,0,0,0,1.000,1.000,1.000,-90.00,180.00,0.00,OPEN,0
667645.156,0,0,0,1.000,1.000,1.000,-90.00,180.00,0.00,OPEN,0
667645.206,0,0,0,1.000,1.000,1.000,-90.00,180.00,0.00,OPEN,0
667645.256,0,0,0,1.000,1.000,1.000,-90.00,180.00,0.00,OPEN,0
667645.306,0,0,0,1.000,1.000,1.000,-90.00,180.00,0.00,OPEN,0
667645.355,0,0,0,1.000,1.000,1.000,-90.00,180.00,0.00,OPEN,0
667645.406,0,0,0,1.000,1.000,1.000,-90.00,180.00,0.00,OPEN,0
667645.456,0,0,0,1.000,1.000,1.000,-90.00,180.00,0.00,OPEN,0
667645.505,0,0,0,1.000,1.000,1.000,-90.00,180.00,0.00,OPEN,0
667645.555,0,0,0,1.000,1.000,1.000,-90.00,180.00,0.00,OPEN,0
667645.606,0,0,0,1.000,1.000,1.000,-90.00,180.00,0.00,OPEN,0
667645.656,0,0,0,1.000,1.000,1.000,-90.00,180.00,0.00,OPEN,0
667645.707,0,0,0,1.000,1.000,1.000,-90.00,180.00,0.00,OPEN,0
667645.756,0,0,0,1.000,1.000,1.000,-90.00,180.00,0.00,OPEN,0
667645.806,0,0,0,1.000,1.000,1.000,-90.00,180.00,0.00,OPEN,0
667645.856,0,0,0,1.000,1.000,1.000,-90.00,180.00,0.00,OPEN,0
667645.905,0,0,0,1.000,1.000,1.000,-90.00,180.00,0.00,OPEN,0
667645.956,0,0,0,1.000,1.000,1.000,-90.00,180.00,0.00,OPEN,0
667646.006,0,0,0,1.000,1.000,1.000,-90.00,180.00,0.00,OPEN,0
667646.056,0,0,0,1.000,1.000,1.000,-90.00,180.00,0.00,OPEN,0
667646.106,0,0,0,1.000,1.000,1.000,-90.00,180.00,0.00,OPEN,0
667646.156,0,0,0,1.000,1.000,1.000,-90.00,180.00,0.00,OPEN,0
667646.206,0,0,0,1.000,1.000,1.000,-90.00,180.00,0.00,OPEN,0
667646.256,0,0,0,1.000,1.000,1.000,-90.00,180.00,0.00,OPEN,0
667646.306,0,0,0,1.000,1.000,1.000,-90.00,180.00,0.00,OPEN,0
667646.356,0,0,0,1.000,1.000,1.000,-90.00,180.00,0.00,OPEN,0
667646.406,0,0,0,1.000,1.000,1.000,-90.00,180.00,0.00,OPEN,0
667646.456,0,0,0,1.000,1.000,1.000,-90.00,180.00,0.00,OPEN,0
667646.505,0,0,0,1.000,1.000,1.000,-90.00,180.00,0.00,OPEN,0
667646.556,0,0,0,1.000,1.000,1.000,-90.00,180.00,0.00,OPEN,0
667646.606,0,0,0,1.000,1.000,1.000,-90.00,180.00,0.00,OPEN,0
667646.656,0,0,0,1.000,1.000,1.000,-90.00,180.00,0.00,OPEN,0
667646.707,0,0,0,1.000,1.000,1.000,-90.00,180.00,0.00,OPEN,0
667646.766,0,0,0,1.000,1.000,1.000,-90.00,180.00,0.00,OPEN,0
667646.806,0,0,0,1.000,1.000,1.000,-90.00,180.00,0.00,OPEN,0
667646.856,0,0,0,1.000,1.000,1.000,-90.00,180.00,0.00,OPEN,0
667646.906,0,0,0,1.000,1.000,1.000,-90.00,180.00,0.00,OPEN,0
667646.956,0,0,0,1.000,1.000,1.000,-90.00,180.00,0.00,OPEN,0
667647.006,0,0,0,1.000,1.000,1.000,-90.00,180.00,0.00,OPEN,0
667647.056,0,0,0,1.000,1.000,1.000,-90.00,180.00,0.00,OPEN,0
667647.105,0,0,0,1.000,1.000,1.000,-90.00,180.00,0.00,OPEN,0
667647.156,0,0,0,1.000,1.000,1.000,-90.00,180.00,0.00,OPEN,0
667647.206,0,0,0,1.000,1.000,1.000,-90.00,180.00,0.00,OPEN,0
667647.256,0,0,0,1.000,1.000,1.000,-90.00,180.00,0.00,OPEN,0
667647.306,0,0,0,1.000,1.000,1.000,-90.00,180.00,0.00,OPEN,0
667647.355,0,0,0,1.000,1.000,1.000,-90.00,180.00,0.00,OPEN,0
667647.406,0,0,0,1.000,1.000,1.000,-90.00,180.00,0.00,OPEN,0
667647.456,0,0,0,1.000,1.000,1.000,-90.00,180.00,0.00,OPEN,0
667647.506,0,0,0,1.000,1.000,1.000,-90.00,180.00,0.00,OPEN,0
667647.557,0,0,0,1.000,1.000,1.000,-90.00,180.00,0.00,OPEN,0
667647.606,0,0,0,1.000,1.000,1.000,-90.00,180.00,0.00,OPEN,0
667647.656,0,0,0,1.000,1.000,1.000,-90.00,180.00,0.00,OPEN,0
667647.706,0,0,0,1.000,1.000,1.000,-90.00,180.00,0.00,OPEN,0
667647.756,0,0,0,1.000,1.000,1.000,-90.00,180.00,0.00,OPEN,0
667647.806,0,0,0,1.000,1.000,1.000,-90.00,180.00,0.00,OPEN,0
667647.856,0,0,0,1.000,1.000,1.000,-90.00,180.00,0.00,OPEN,0
667647.906,0,0,0,1.000,1.000,1.000,-90.00,180.00,0.00,OPEN,0
667647.956,0,0,0,1.000,1.000,1.000,-90.00,180.00,0.00,OPEN,0
667648.006,0,0,0,1.000,1.000,1.000,-90.00,180.00,0.00,OPEN,0
667648.055,0,0,0,1.000,1.000,1.000,-90.00,180.00,0.00,OPEN,0
667648.106,0,0,0,1.000,1.000,1.000,-90.00,180.00,0.00,OPEN,0
667648.155,0,0,0,1.000,1.000,1.000,-90.00,180.00,0.00,OPEN,0
667648.206,0,0,0,1.000,1.000,1.000,-90.00,180.00,0.00,OPEN,0
667648.256,0,0,0,1.000,1.000,1.000,-90.00,180.00,0.00,OPEN,0
667648.306,0,0,0,1.000,1.000,1.000,-90.00,180.00,0.00,OPEN,0
667648.356,0,0,0,0.996,1.000,1.000,-90.00,180.00,0.00,OPEN,0
667648.406,0,0,0,0.993,1.000,1.000,-90.00,180.00,0.00,OPEN,0
667648.456,0,0,0,1.000,1.000,1.000,-90.00,180.00,0.00,OPEN,0
667648.506,0,0,0,1.000,1.000,1.000,-90.00,180.00,0.00,OPEN,0
667648.555,0,0,0,1.000,1.000,1.000,-90.00,180.00,0.00,OPEN,0
667648.605,0,0,0,1.000,1.000,1.000,-90.00,180.00,0.00,OPEN,0
667648.655,0,0,0,1.000,1.000,1.000,-90.00,180.00,0.00,OPEN,0
667648.706,0,0,0,1.000,1.000,1.000,-90.00,180.00,0.00,OPEN,0
667648.756,0,0,0,0.990,1.000,1.000,-90.00,180.00,0.00,OPEN,0
667648.806,0,0,0,0.999,1.000,1.000,-90.00,180.00,0.00,OPEN,0
667648.856,0,0,0,0.991,1.000,1.000,-90.00,180.00,0.00,OPEN,0
667648.906,0,0,0,0.992,1.000,1.000,-90.00,180.00,0.00,OPEN,0
667648.956,0,0,0,0.998,1.000,1.000,-90.00,180.00,0.00,OPEN,0
667649.006,0,0,0,1.000,1.000,1.000,-90.00,180.00,0.00,OPEN,0
667649.056,0,0,0,1.000,1.000,1.000,-90.00,180.00,0.00,OPEN,0
667649.106,0,0,0,1.000,1.000,1.000,-90.00,180.00,0.00,OPEN,0
667649.156,0,0,0,1.000,1.000,1.000,-90.00,180.00,0.00,OPEN,0
667649.206,0,0,0,1.000,1.000,1.000,-90.00,180.00,0.00,OPEN,0
667649.256,0,0,0,1.000,1.000,1.000,-90.00,180.00,0.00,OPEN,0
667649.306,0,0,0,1.000,1.000,1.000,-90.00,180.00,0.00,OPEN,0
667649.356,0,0,0,1.000,1.000,1.000,-90.00,180.00,0.00,OPEN,0
667649.406,0,0,0,1.000,1.000,1.000,-90.00,180.00,0.00,OPEN,0
667649.456,0,0,0,1.000,1.000,1.000,-90.00,180.00,0.00,OPEN,0
667649.506,0,0,0,1.000,1.000,1.000,-90.00,180.00,0.00,OPEN,0
667649.556,0,0,0,1.000,1.000,1.000,-90.00,180.00,0.00,OPEN,0
667649.606,0,0,0,1.000,1.000,1.000,-90.00,180.00,0.00,OPEN,0
667649.656,0,0,0,1.000,1.000,1.000,-90.00,180.00,0.00,OPEN,0
667649.706,0,0,0,1.000,1.000,1.000,-90.00,180.00,0.00,OPEN,0
667649.756,0,0,0,1.000,1.000,1.000,-90.00,180.00,0.00,OPEN,0
667649.806,0,0,0,1.000,1.000,1.000,-90.00,180.00,0.00,OPEN,0
667649.856,0,0,0,1.000,1.000,1.000,-90.00,180.00,0.00,OPEN,0
667649.906,0,0,0,1.000,1.000,1.000,-90.00,180.00,0.00,OPEN,0
667649.956,0,0,0,1.000,1.000,1.000,-90.00,180.00,0.00,OPEN,0
667650.005,0,0,0,1.000,1.000,1.000,-90.00,180.00,0.00,OPEN,0
667650.056,0,0,0,1.000,1.000,1.000,-90.00,180.00,0.00,OPEN,0
667650.106,0,0,0,1.000,1.000,1.000,-90.00,180.00,0.00,OPEN,0
667650.156,0,0,0,1.000,1.000,1.000,-90.00,180.00,0.00,OPEN,0
667650.210,0,0,0,1.000,1.000,1.000,-90.00,180.00,0.00,OPEN,0
667650.256,0,0,0,1.000,1.000,1.000,-90.00,180.00,0.00,OPEN,0
667650.306,0,0,0,1.000,1.000,1.000,-90.00,180.00,0.00,OPEN,0
667650.356,0,0,0,1.000,1.000,1.000,-90.00,180.00,0.00,OPEN,0
667650.406,0,0,0,1.000,1.000,1.000,-90.00,180.00,0.00,OPEN,0
667650.456,0,0,0,1.000,1.000,1.000,-90.00,180.00,0.00,OPEN,0
667650.506,0,0,0,1.000,1.000,1.000,-90.00,180.00,0.00,OPEN,0
667650.556,0,0,0,1.000,1.000,1.000,-90.00,180.00,0.00,OPEN,0
667650.606,0,0,0,1.000,1.000,1.000,-90.00,180.00,0.00,OPEN,0
667650.655,0,0,0,1.000,1.000,1.000,-90.00,180.00,0.00,OPEN,0
667650.706,0,0,0,1.000,1.000,1.000,-90.00,180.00,0.00,OPEN,0
667650.757,0,0,0,1.000,1.000,1.000,-90.00,180.00,0.00,OPEN,0
667650.806,0,0,0,1.000,1.000,1.000,-90.00,180.00,0.00,OPEN,0
667650.856,0,0,0,1.000,1.000,1.000,-90.00,180.00,0.00,OPEN,0
667650.906,0,0,0,1.000,1.000,1.000,-90.00,180.00,0.00,OPEN,0
667650.955,0,0,0,1.000,1.000,1.000,-90.00,180.00,0.00,OPEN,0
667651.006,0,0,0,1.000,1.000,1.000,-90.00,180.00,0.00,OPEN,0
667651.056,0,0,0,1.000,1.000,1.000,-90.00,180.00,0.00,OPEN,0
667651.106,0,0,0,1.000,1.000,1.000,-90.00,180.00,0.00,OPEN,0
667651.155,0,0,0,1.000,1.000,1.000,-90.00,180.00,0.00,OPEN,0
667651.206,0,0,0,1.000,1.000,1.000,-90.00,180.00,0.00,OPEN,0
667651.256,0,0,0,1.000,1.000,1.000,-90.00,180.00,0.00,OPEN,0
667651.306,0,0,0,1.000,1.000,1.000,-90.00,180.00,0.00,OPEN,0
667651.355,0,0,0,1.000,1.000,1.000,-90.00,180.00,0.00,OPEN,0
667651.406,0,0,0,1.000,1.000,1.000,-90.00,180.00,0.00,OPEN,0
667651.455,0,0,0,1.000,1.000,1.000,-90.00,180.00,0.00,OPEN,0
667651.507,0,0,0,1.000,1.000,1.000,-90.00,180.00,0.00,OPEN,0
667651.555,0,0,0,1.000,1.000,1.000,-90.00,180.00,0.00,OPEN,0
667651.606,0,0,0,1.000,1.000,1.000,-90.00,180.00,0.00,OPEN,0
667651.656,0,0,0,1.000,1.000,1.000,-90.00,180.00,0.00,OPEN,0
667651.706,0,0,0,1.000,1.000,1.000,-90.00,180.00,0.00,OPEN,0
667651.756,0,0,0,1.000,1.000,1.000,-90.00,180.00,0.00,OPEN,0
667651.806,0,0,0,1.000,1.000,1.000,-90.00,180.00,0.00,OPEN,0
667651.856,0,0,0,1.000,1.000,1.000,-90.00,180.00,0.00,OPEN,0
667651.906,0,0,0,1.000,1.000,1.000,-90.00,180.00,0.00,OPEN,0
667651.956,0,0,0,1.000,1.000,1.000,-90.00,180.00,0.00,OPEN,0
667652.006,0,0,0,1.000,1.000,1.000,-90.00,180.00,0.00,OPEN,0
667652.056,0,0,0,1.000,1.000,1.000,-90.00,180.00,0.00,OPEN,0
667652.106,0,0,0,1.000,1.000,1.000,-90.00,180.00,0.00,OPEN,0
667652.155,0,0,0,1.000,1.000,1.000,-90.00,180.00,0.00,OPEN,0
667652.206,0,0,0,1.000,1.000,1.000,-90.00,180.00,0.00,OPEN,0
667652.256,0,0,0,1.000,1.000,1.000,-90.00,180.00,0.00,OPEN,0
667652.306,0,0,0,1.000,1.000,1.000,-90.00,180.00,0.00,OPEN,0
667652.356,0,0,0,1.000,1.000,1.000,-90.00,180.00,0.00,OPEN,0
667652.406,0,0,0,1.000,1.000,1.000,-90.00,180.00,0.00,OPEN,0
667652.456,0,0,0,1.000,1.000,1.000,-90.00,180.00,0.00,OPEN,0
667652.506,0,0,0,1.000,1.000,1.000,-90.00,180.00,0.00,OPEN,0
667652.555,0,0,0,1.000,1.000,1.000,-90.00,180.00,0.00,OPEN,0
667652.605,0,0,0,1.000,1.000,1.000,-90.00,180.00,0.00,OPEN,0
667652.656,0,0,0,1.000,1.000,1.000,-90.00,180.00,0.00,OPEN,0
667652.705,0,0,0,1.000,1.000,1.000,-90.00,180.00,0.00,OPEN,0
667652.755,0,0,0,1.000,1.000,1.000,-90.00,180.00,0.00,OPEN,0
667652.806,0,0,0,1.000,1.000,1.000,-90.00,180.00,0.00,OPEN,0
667652.857,0,0,0,1.000,1.000,1.000,-90.00,180.00,0.00,OPEN,0
667652.906,0,0,0,1.000,1.000,1.000,-90.00,180.00,0.00,OPEN,0
667652.956,0,0,0,1.000,1.000,1.000,-90.00,180.00,0.00,OPEN,0
667653.006,0,0,0,1.000,1.000,1.000,-90.00,180.00,0.00,OPEN,0
667653.056,0,0,0,1.000,1.000,1.000,-90.00,180.00,0.00,OPEN,0
667653.106,0,0,0,1.000,1.000,1.000,-90.00,180.00,0.00,OPEN,0
667653.156,0,0,0,1.000,1.000,1.000,-90.00,180.00,0.00,OPEN,0
667653.206,0,0,0,1.000,1.000,1.000,-90.00,180.00,0.00,OPEN,0
667653.256,0,0,0,1.000,1.000,1.000,-90.00,180.00,0.00,OPEN,0
667653.306,0,0,0,1.000,1.000,1.000,-90.00,180.00,0.00,OPEN,0
667653.356,0,0,0,1.000,1.000,1.000,-90.00,180.00,0.00,OPEN,0
667653.406,0,0,0,1.000,1.000,1.000,-90.00,180.00,0.00,OPEN,0
667653.456,0,0,0,1.000,1.000,1.000,-90.00,180.00,0.00,OPEN,0
667653.506,0,0,0,1.000,1.000,1.000,-90.00,180.00,0.00,OPEN,0
667653.556,0,0,0,1.000,1.000,1.000,-90.00,180.00,0.00,OPEN,0
667653.610,0,0,0,1.000,1.000,1.000,-90.00,180.00,0.00,OPEN,0
667653.661,0,0,0,1.000,1.000,1.000,-90.00,180.00,0.00,OPEN,0
667653.706,0,0,0,1.000,1.000,1.000,-90.00,180.00,0.00,OPEN,0
667653.755,0,0,0,1.000,1.000,1.000,-90.00,180.00,0.00,OPEN,0
667653.806,0,0,0,1.000,1.000,1.000,-90.00,180.00,0.00,OPEN,0
667653.856,0,0,0,1.000,1.000,1.000,-90.00,180.00,0.00,OPEN,0
667653.906,0,0,0,1.000,1.000,1.000,-90.00,180.00,0.00,OPEN,0
667653.956,0,0,0,1.000,1.000,1.000,-90.00,180.00,0.00,OPEN,0
667654.006,0,0,0,1.000,1.000,1.000,-90.00,180.00,0.00,OPEN,0
667654.055,0,0,0,1.000,1.000,1.000,-90.00,180.00,0.00,OPEN,0
667654.106,0,0,0,1.000,1.000,1.000,-90.00,180.00,0.00,OPEN,0
667654.155,0,0,0,1.000,1.000,1.000,-90.00,180.00,0.00,OPEN,0
667654.205,0,0,0,1.000,1.000,1.000,-90.00,180.00,0.00,OPEN,0
667654.256,0,0,0,1.000,1.000,1.000,-90.00,180.00,0.00,OPEN,0
667654.306,0,0,0,1.000,1.000,1.000,-90.00,180.00,0.00,OPEN,0
667654.356,0,0,0,1.000,1.000,1.000,-90.00,180.00,0.00,OPEN,0
667654.406,0,0,0,1.000,1.000,1.000,-90.00,180.00,0.00,OPEN,0
667654.456,0,0,0,1.000,1.000,1.000,-90.00,180.00,0.00,OPEN,0
667654.506,0,0,0,1.000,1.000,1.000,-90.00,180.00,0.00,OPEN,0
667654.556,0,0,0,1.000,1.000,1.000,-90.00,180.00,0.00,OPEN,0
667654.606,0,0,0,1.000,1.000,1.000,-90.00,180.00,0.00,OPEN,0
667654.656,0,0,0,1.000,1.000,1.000,-90.00,180.00,0.00,OPEN,0
667654.705,0,0,0,1.000,1.000,1.000,-90.00,180.00,0.00,OPEN,0
667654.756,0,0,0,1.000,1.000,1.000,-90.00,180.00,0.00,OPEN,0
667654.806,0,0,0,1.000,1.000,1.000,-90.00,180.00,0.00,OPEN,0
667654.856,0,0,0,1.000,1.000,1.000,-90.00,180.00,0.00,OPEN,0
667654.906,0,0,0,1.000,1.000,1.000,-90.00,180.00,0.00,OPEN,0
667654.957,0,0,0,1.000,1.000,1.000,-90.00,180.00,0.00,OPEN,0
667655.008,0,0,0,1.000,1.000,1.000,-90.00,180.00,0.00,OPEN,0
667655.056,0,0,0,1.000,1.000,1.000,-90.00,180.00,0.00,OPEN,0
667655.106,0,0,0,1.000,1.000,1.000,-90.00,180.00,0.00,OPEN,0
667655.156,0,0,0,1.000,1.000,1.000,-90.00,180.00,0.00,OPEN,0
667655.205,0,0,0,1.000,1.000,1.000,-90.00,180.00,0.00,OPEN,0
667655.255,0,0,0,1.000,1.000,1.000,-90.00,180.00,0.00,OPEN,0
667655.306,0,0,0,1.000,1.000,1.000,-90.00,180.00,0.00,OPEN,0
667655.356,0,0,0,1.000,1.000,1.000,-90.00,180.00,0.00,OPEN,0
667655.406,0,0,0,1.000,0.999,1.000,-90.00,180.00,0.00,OPEN,0
667655.456,0,0,0,1.000,0.998,1.000,-90.00,180.00,0.00,OPEN,0
667655.506,0,0,0,1.000,0.994,1.000,-90.00,180.00,0.00,OPEN,0
667655.556,0,0,0,1.000,0.973,1.000,-90.00,180.00,0.00,OPEN,0
667655.605,0,0,0,1.000,0.706,1.000,-90.00,180.00,0.00,OPEN,0
667655.656,0,0,0,1.000,0.835,1.000,-90.00,180.00,0.00,OPEN,0
667655.706,0,0,0,1.000,0.947,1.000,-90.00,180.00,0.00,OPEN,0
667655.756,0,0,0,1.000,0.962,1.000,-90.00,180.00,0.00,OPEN,0
667655.805,0,0,0,1.000,0.954,1.000,-90.00,180.00,0.00,OPEN,0
667655.855,0,0,0,1.000,0.886,1.000,-90.00,180.00,0.00,OPEN,0
667655.906,0,0,0,1.000,0.583,1.000,-90.00,180.00,0.00,OPEN,0
667655.956,0,0,0,1.000,0.745,1.000,-90.00,180.00,0.00,OPEN,0
667656.006,0,0,0,1.000,0.909,1.000,-90.00,180.00,0.00,OPEN,0
667656.056,0,0,0,1.000,0.961,0.999,-90.00,180.00,0.00,OPEN,0
667656.106,0,0,0,1.000,0.986,0.998,-90.00,180.00,0.00,OPEN,0
667656.156,0,0,0,1.000,0.994,0.997,-90.00,180.00,0.00,OPEN,0
667656.206,0,0,0,1.000,0.996,0.996,-90.00,180.00,0.00,OPEN,0
667656.256,0,0,0,1.000,0.997,0.995,-90.00,180.00,0.00,OPEN,0
667656.306,0,0,0,1.000,0.998,0.995,-90.00,180.00,0.00,OPEN,0
667656.356,0,0,0,1.000,0.998,0.994,-90.00,180.00,0.00,OPEN,0
667656.406,0,0,0,1.000,0.998,0.994,-90.00,180.00,0.00,OPEN,0
667656.456,0,0,0,1.000,0.999,0.992,-90.00,180.00,0.00,OPEN,0
667656.506,0,0,0,1.000,0.999,0.987,-90.00,180.00,0.00,OPEN,0
667656.556,0,0,0,1.000,0.999,0.979,-90.00,180.00,0.00,OPEN,0
667656.606,0,0,0,1.000,0.999,0.969,-90.00,180.00,0.00,OPEN,0
667656.656,0,0,0,1.000,1.000,0.968,-90.00,180.00,0.00,OPEN,0
667656.706,0,0,0,1.000,1.000,0.970,-90.00,180.00,0.00,OPEN,0
667656.756,0,0,0,1.000,1.000,0.976,-90.00,180.00,0.00,OPEN,0
667656.805,0,0,0,1.000,1.000,0.979,-90.00,180.00,0.00,OPEN,0
667656.856,0,0,0,1.000,0.999,0.980,-90.00,180.00,0.00,OPEN,0
667656.906,0,0,0,1.000,0.999,0.982,-90.00,180.00,0.00,OPEN,0
667656.956,0,0,0,1.000,0.998,0.983,-90.00,180.00,0.00,OPEN,0
667657.006,0,0,0,1.000,0.994,0.979,-90.00,180.00,0.00,OPEN,0
667657.061,0,0,0,1.000,0.980,0.973,-90.00,180.00,0.00,OPEN,0
667657.106,0,0,0,1.000,0.943,0.951,-90.00,180.00,0.00,OPEN,0
667657.155,0,0,0,1.000,0.888,0.924,-90.00,180.00,0.00,OPEN,0
667657.206,0,0,0,1.000,0.865,0.897,-90.00,180.00,0.00,OPEN,0
667657.256,0,0,0,1.000,0.869,0.887,-90.00,180.00,0.00,OPEN,0
667657.306,0,0,0,1.000,0.854,0.901,-90.00,180.00,0.00,OPEN,0
667657.356,0,0,0,1.000,0.831,0.929,-90.00,180.00,0.00,OPEN,0
667657.406,0,0,0,1.000,0.825,0.960,-90.00,180.00,0.00,OPEN,0
667657.456,0,0,0,1.000,0.859,0.977,-90.00,180.00,0.00,OPEN,0
667657.506,0,0,0,1.000,0.906,0.988,-90.00,180.00,0.00,OPEN,0
667657.556,0,0,0,1.000,0.942,0.992,-90.00,180.00,0.00,OPEN,0
667657.606,0,0,0,1.000,0.969,0.995,-90.00,180.00,0.00,OPEN,0
667657.656,0,0,0,1.000,0.981,0.997,-90.00,180.00,0.00,OPEN,0
667657.706,0,0,0,1.000,0.989,0.998,-90.00,180.00,0.00,OPEN,0
667657.756,0,0,0,1.000,0.992,0.998,-90.00,180.00,0.00,OPEN,0
667657.806,0,0,0,1.000,0.995,0.998,-90.00,180.00,0.00,OPEN,0
667657.855,0,0,0,1.000,0.996,0.998,-90.00,180.00,0.00,OPEN,0
667657.906,0,0,0,1.000,0.997,0.998,-90.00,180.00,0.00,OPEN,0
667657.956,0,0,0,1.000,0.996,0.997,-90.00,180.00,0.00,OPEN,0
667658.006,0,0,0,1.000,0.995,0.996,-90.00,180.00,0.00,OPEN,0
667658.056,0,0,0,1.000,0.989,0.994,-90.00,180.00,0.00,OPEN,0
667658.106,0,0,0,1.000,0.962,0.989,-90.00,180.00,0.00,OPEN,0
667658.156,0,0,0,1.000,0.843,0.982,-90.00,180.00,0.00,OPEN,0
667658.206,0,0,0,1.000,0.502,0.973,-90.00,180.00,0.00,OPEN,0
667658.255,0,0,0,1.000,0.804,0.970,-90.00,180.00,0.00,OPEN,0
667658.306,0,0,0,1.000,0.892,0.972,-90.00,180.00,0.00,OPEN,0
667658.356,0,0,0,1.000,0.892,0.979,-90.00,180.00,0.00,OPEN,0
667658.406,0,0,0,1.000,0.818,0.984,-90.00,180.00,0.00,OPEN,0
667658.456,0,0,0,1.000,0.657,0.989,-90.00,180.00,0.00,OPEN,0
667658.506,0,0,0,1.000,0.515,0.990,-90.00,180.00,0.00,OPEN,0
667658.556,0,0,0,1.000,0.650,0.990,-90.00,180.00,0.00,OPEN,0
667658.606,0,0,0,1.000,0.754,0.989,-90.00,180.00,0.00,OPEN,0
667658.656,0,0,0,1.000,0.770,0.988,-90.00,180.00,0.00,OPEN,0
667658.706,0,0,0,1.000,0.735,0.985,-90.00,180.00,0.00,OPEN,0
667658.756,0,0,0,1.000,0.698,0.983,-90.00,180.00,0.00,OPEN,0
667658.806,0,0,0,1.000,0.645,0.984,-90.00,180.00,0.00,OPEN,0
667658.856,0,0,0,1.000,0.608,0.985,-90.00,180.00,0.00,OPEN,0
667658.906,0,0,0,1.000,0.618,0.989,-90.00,180.00,0.00,OPEN,0
667658.956,0,0,0,1.000,0.718,0.990,-90.00,180.00,0.00,OPEN,0
667659.006,0,0,0,1.000,0.775,0.992,-90.00,180.00,0.00,OPEN,0
667659.055,0,0,0,1.000,0.844,0.990,-90.00,180.00,0.00,OPEN,0
667659.106,0,0,0,1.000,0.898,0.991,-90.00,180.00,0.00,OPEN,0
667659.156,0,0,0,1.000,0.915,0.989,-90.00,180.00,0.00,OPEN,0
667659.206,0,0,0,1.000,0.913,0.986,-90.00,180.00,0.00,OPEN,0
667659.256,0,0,0,1.000,0.908,0.983,-90.00,180.00,0.00,OPEN,0
667659.306,0,0,0,1.000,0.883,0.972,-90.00,180.00,0.00,OPEN,0
667659.356,0,0,0,1.000,0.875,0.955,-90.00,180.00,0.00,OPEN,0
667659.406,0,0,0,1.000,0.937,0.949,-90.00,180.00,0.00,OPEN,0
667659.456,0,0,0,1.000,0.978,0.950,-90.00,180.00,0.00,OPEN,0
667659.506,0,0,0,1.000,0.992,0.962,-90.00,180.00,0.00,OPEN,0
667659.556,0,0,0,1.000,0.996,0.970,-90.00,180.00,0.00,OPEN,0
667659.605,0,0,0,1.000,0.997,0.974,-90.00,180.00,0.00,OPEN,0
667659.656,0,0,0,1.000,0.998,0.978,-90.00,180.00,0.00,OPEN,0
667659.706,0,0,0,1.000,0.998,0.979,-90.00,180.00,0.00,OPEN,0
667659.756,0,0,0,1.000,0.997,0.977,-90.00,180.00,0.00,OPEN,0
667659.805,0,0,0,1.000,0.994,0.975,-90.00,180.00,0.00,OPEN,0
667659.857,0,0,0,1.000,0.987,0.974,-90.00,180.00,0.00,OPEN,0
667659.906,0,0,0,1.000,0.955,0.970,-90.00,180.00,0.00,OPEN,0
667659.955,0,0,0,1.000,0.852,0.962,-90.00,180.00,0.00,OPEN,0
667660.006,0,0,0,1.000,0.690,0.959,-90.00,180.00,0.00,OPEN,0
667660.056,0,0,0,1.000,0.531,0.957,-90.00,180.00,0.00,OPEN,0
667660.105,0,0,0,1.000,0.596,0.954,-90.00,180.00,0.00,OPEN,0
667660.156,0,0,0,1.000,0.509,0.960,-90.00,180.00,0.00,OPEN,0
667660.206,0,0,0,1.000,0.617,0.963,-90.00,180.00,0.00,OPEN,0
667660.256,0,0,0,1.000,0.725,0.964,-90.00,180.00,0.00,OPEN,0
667660.306,0,0,0,1.000,0.760,0.968,-90.00,180.00,0.00,OPEN,0
667660.356,0,0,0,1.000,0.755,0.971,-90.00,180.00,0.00,OPEN,0
667660.406,0,0,0,1.000,0.711,0.976,-90.00,180.00,0.00,OPEN,0
667660.456,0,0,0,1.000,0.637,0.980,-90.00,180.00,0.00,OPEN,0
667660.512,0,0,0,1.000,0.555,0.980,-90.00,180.00,0.00,OPEN,0
667660.556,0,0,0,1.000,0.519,0.983,-90.00,180.00,0.00,OPEN,0
667660.605,0,0,0,1.000,0.550,0.983,-90.00,180.00,0.00,OPEN,0
667660.656,0,0,0,1.000,0.720,0.981,-90.00,180.00,0.00,OPEN,0
667660.706,0,0,0,1.000,0.863,0.972,-90.00,180.00,0.00,OPEN,0
667660.756,0,0,0,1.000,0.956,0.953,-90.00,180.00,0.00,OPEN,0
667660.806,0,0,0,1.000,0.980,0.932,-90.00,180.00,0.00,OPEN,0
667660.856,0,0,0,1.000,0.987,0.903,-90.00,180.00,0.00,OPEN,0
667660.905,0,0,0,1.000,0.988,0.892,-90.00,180.00,0.00,OPEN,0
667660.956,0,0,0,1.000,0.986,0.895,-90.00,180.00,0.00,OPEN,0
667661.006,0,0,0,1.000,0.977,0.924,-90.00,180.00,0.00,OPEN,0
667661.056,0,0,0,1.000,0.950,0.968,-90.00,180.00,0.00,OPEN,0
667661.106,0,0,0,1.000,0.926,0.987,-90.00,180.00,0.00,OPEN,0
667661.156,0,0,0,1.000,0.941,0.996,-90.00,180.00,0.00,OPEN,0
667661.205,0,0,0,1.000,0.975,0.999,-90.00,180.00,0.00,OPEN,0
667661.256,0,0,0,1.000,0.987,0.999,-90.00,180.00,0.00,OPEN,0
667661.306,0,0,0,1.000,0.995,0.999,-90.00,180.00,0.00,OPEN,0
667661.355,0,0,0,1.000,0.999,0.999,-90.00,180.00,0.00,OPEN,0
667661.405,0,0,0,1.000,1.000,0.999,-90.00,180.00,0.00,OPEN,0
667661.456,0,0,0,1.000,1.000,0.999,-90.00,180.00,0.00,OPEN,0
667661.506,0,0,0,1.000,1.000,0.999,-90.00,180.00,0.00,OPEN,0
667661.555,0,0,0,1.000,1.000,1.000,-90.00,180.00,0.00,OPEN,0
667661.606,0,0,0,1.000,1.000,1.000,-90.00,180.00,0.00,OPEN,0
667661.656,0,0,0,1.000,1.000,1.000,-90.00,180.00,0.00,OPEN,0
667661.705,0,0,0,1.000,1.000,1.000,-90.00,180.00,0.00,OPEN,0
667661.756,0,0,0,1.000,0.998,1.000,-90.00,180.00,0.00,OPEN,0
667661.806,0,0,0,0.999,0.998,1.000,-90.00,180.00,0.00,OPEN,0
667661.856,0,0,0,0.999,0.998,1.000,-90.00,180.00,0.00,OPEN,0
667661.906,0,0,0,0.999,0.999,1.000,-90.00,180.00,0.00,OPEN,0
667661.956,0,0,0,1.000,1.000,1.000,-90.00,180.00,0.00,OPEN,0
667662.006,0,0,0,1.000,1.000,1.000,-90.00,180.00,0.00,OPEN,0
667662.057,0,0,0,1.000,1.000,1.000,-90.00,180.00,0.00,OPEN,0
667662.106,0,0,0,1.000,1.000,1.000,-90.00,180.00,0.00,OPEN,0
667662.156,0,0,0,1.000,1.000,1.000,-90.00,180.00,0.00,OPEN,0
667662.206,0,0,0,1.000,1.000,1.000,-90.00,180.00,0.00,OPEN,0
667662.256,0,0,0,1.000,1.000,1.000,-90.00,180.00,0.00,OPEN,0
667662.306,0,0,0,1.000,1.000,1.000,-90.00,180.00,0.00,OPEN,0
667662.355,0,0,0,1.000,1.000,1.000,-90.00,180.00,0.00,OPEN,0
667662.406,0,0,0,1.000,1.000,1.000,-90.00,180.00,0.00,OPEN,0
667662.456,0,0,0,1.000,1.000,1.000,-90.00,180.00,0.00,OPEN,0
667662.506,0,0,0,1.000,1.000,1.000,-90.00,180.00,0.00,OPEN,0
667662.556,0,0,0,1.000,1.000,1.000,-90.00,180.00,0.00,OPEN,0
667662.606,0,0,0,1.000,1.000,1.000,-90.00,180.00,0.00,OPEN,0
667662.656,0,0,0,1.000,1.000,1.000,-90.00,180.00,0.00,OPEN,0
667662.706,0,0,0,1.000,1.000,1.000,-90.00,180.00,0.00,OPEN,0
667662.756,0,0,0,1.000,1.000,1.000,-90.00,180.00,0.00,OPEN,0
667662.806,0,0,0,1.000,1.000,1.000,-90.00,180.00,0.00,OPEN,0
667662.856,0,0,0,1.000,1.000,1.000,-90.00,180.00,0.00,OPEN,0
667662.906,0,0,0,1.000,1.000,1.000,-90.00,180.00,0.00,OPEN,0
667662.957,0,0,0,1.000,1.000,1.000,-90.00,180.00,0.00,OPEN,0
667663.006,0,0,0,1.000,1.000,1.000,-90.00,180.00,0.00,OPEN,0
667663.056,0,0,0,1.000,1.000,1.000,-90.00,180.00,0.00,OPEN,0
667663.106,0,0,0,1.000,1.000,1.000,-90.00,180.00,0.00,OPEN,0
667663.156,0,0,0,1.000,1.000,1.000,-90.00,180.00,0.00,OPEN,0
667663.206,0,0,0,1.000,1.000,1.000,-90.00,180.00,0.00,OPEN,0
667663.256,0,0,0,1.000,1.000,1.000,-90.00,180.00,0.00,OPEN,0
667663.305,0,0,0,1.000,1.000,1.000,-90.00,180.00,0.00,OPEN,0
667663.356,0,0,0,1.000,1.000,1.000,-90.00,180.00,0.00,OPEN,0
667663.406,0,0,0,1.000,1.000,1.000,-90.00,180.00,0.00,OPEN,0
667663.456,0,0,0,1.000,1.000,1.000,-90.00,180.00,0.00,OPEN,0
667663.506,0,0,0,1.000,1.000,1.000,-90.00,180.00,0.00,OPEN,0
667663.556,0,0,0,1.000,1.000,1.000,-90.00,180.00,0.00,OPEN,0
667663.606,0,0,0,1.000,1.000,1.000,-90.00,180.00,0.00,OPEN,0
667663.656,0,0,0,1.000,1.000,1.000,-90.00,180.00,0.00,OPEN,0
667663.706,0,0,0,1.000,1.000,1.000,-90.00,180.00,0.00,OPEN,0
667663.756,0,0,0,1.000,1.000,1.000,-90.00,180.00,0.00,OPEN,0
667663.806,0,0,0,1.000,1.000,1.000,-90.00,180.00,0.00,OPEN,0
667663.855,0,0,0,1.000,1.000,1.000,-90.00,180.00,0.00,OPEN,0
667663.906,0,0,0,1.000,1.000,1.000,-90.00,180.00,0.00,OPEN,0
667663.956,0,0,0,1.000,1.000,1.000,-90.00,180.00,0.00,OPEN,0
667664.005,0,0,0,1.000,1.000,1.000,-90.00,180.00,0.00,OPEN,0
667664.056,0,0,0,1.000,1.000,1.000,-90.00,180.00,0.00,OPEN,0
667664.106,0,0,0,1.000,1.000,1.000,-90.00,180.00,0.00,OPEN,0
667664.156,0,0,0,1.000,1.000,1.000,-90.00,180.00,0.00,OPEN,0
667664.206,0,0,0,1.000,1.000,1.000,-90.00,180.00,0.00,OPEN,0
667664.256,0,0,0,1.000,1.000,1.000,-90.00,180.00,0.00,OPEN,0
667664.306,0,0,0,1.000,1.000,1.000,-90.00,180.00,0.00,OPEN,0
667664.356,0,0,0,1.000,1.000,1.000,-90.00,180.00,0.00,OPEN,0
667664.406,0,0,0,1.000,1.000,1.000,-90.00,180.00,0.00,OPEN,0
667664.455,0,0,0,1.000,1.000,1.000,-90.00,180.00,0.00,OPEN,0
667664.506,0,0,0,1.000,1.000,1.000,-90.00,180.00,0.00,OPEN,0
667664.561,0,0,0,1.000,1.000,1.000,-90.00,180.00,0.00,OPEN,0
667664.607,0,0,0,1.000,1.000,1.000,-90.00,180.00,0.00,OPEN,0
667664.656,0,0,0,1.000,1.000,1.000,-90.00,180.00,0.00,OPEN,0
667664.706,0,0,0,1.000,1.000,1.000,-90.00,180.00,0.00,OPEN,0
667664.755,0,0,0,1.000,1.000,1.000,-90.00,180.00,0.00,OPEN,0
667664.806,0,0,0,1.000,1.000,1.000,-90.00,180.00,0.00,OPEN,0
667664.856,0,0,0,1.000,1.000,1.000,-90.00,180.00,0.00,OPEN,0
667664.905,0,0,0,1.000,1.000,1.000,-90.00,180.00,0.00,OPEN,0
667664.956,0,0,0,1.000,1.000,1.000,-90.00,180.00,0.00,OPEN,0
667665.005,0,0,0,1.000,1.000,1.000,-90.00,180.00,0.00,OPEN,0
667665.056,0,0,0,1.000,1.000,1.000,-90.00,180.00,0.00,OPEN,0
667665.106,0,0,0,1.000,1.000,1.000,-90.00,180.00,0.00,OPEN,0
667665.156,0,0,0,1.000,1.000,1.000,-90.00,180.00,0.00,OPEN,0
667665.206,0,0,0,1.000,1.000,1.000,-90.00,180.00,0.00,OPEN,0
667665.256,0,0,0,1.000,1.000,1.000,-90.00,180.00,0.00,OPEN,0
667665.306,0,0,0,1.000,1.000,1.000,-90.00,180.00,0.00,OPEN,0
667665.356,0,0,0,1.000,1.000,1.000,-90.00,180.00,0.00,OPEN,0
667665.406,0,0,0,1.000,1.000,1.000,-90.00,180.00,0.00,OPEN,0
667665.456,0,0,0,1.000,1.000,1.000,-90.00,180.00,0.00,OPEN,0
667665.506,0,0,0,1.000,1.000,1.000,-90.00,180.00,0.00,OPEN,0
667665.556,0,0,0,1.000,1.000,1.000,-90.00,180.00,0.00,OPEN,0
667665.606,0,0,0,1.000,1.000,1.000,-90.00,180.00,0.00,OPEN,0
667665.656,0,0,0,1.000,1.000,1.000,-90.00,180.00,0.00,OPEN,0
667665.705,0,0,0,1.000,1.000,1.000,-90.00,180.00,0.00,OPEN,0
667665.756,0,0,0,1.000,1.000,1.000,-90.00,180.00,0.00,OPEN,0
667665.805,0,0,0,1.000,1.000,1.000,-90.00,180.00,0.00,OPEN,0
667665.856,0,0,0,1.000,1.000,1.000,-90.00,180.00,0.00,OPEN,0
667665.906,0,0,0,1.000,1.000,1.000,-90.00,180.00,0.00,OPEN,0
667665.956,0,0,0,1.000,1.000,1.000,-90.00,180.00,0.00,OPEN,0
667666.006,0,0,0,1.000,1.000,1.000,-90.00,180.00,0.00,OPEN,0
667666.056,0,0,0,1.000,1.000,1.000,-90.00,180.00,0.00,OPEN,0
667666.106,0,0,0,1.000,1.000,1.000,-90.00,180.00,0.00,OPEN,0
667666.156,0,0,0,1.000,1.000,1.000,-90.00,180.00,0.00,OPEN,0
667666.206,0,0,0,1.000,1.000,1.000,-90.00,180.00,0.00,OPEN,0
667666.256,0,0,0,1.000,1.000,1.000,-90.00,180.00,0.00,OPEN,0
667666.306,0,0,0,1.000,1.000,1.000,-90.00,180.00,0.00,OPEN,0
667666.356,0,0,0,1.000,1.000,1.000,-90.00,180.00,0.00,OPEN,0
667666.406,0,0,0,1.000,1.000,1.000,-90.00,180.00,0.00,OPEN,0
667666.456,0,0,0,1.000,1.000,1.000,-90.00,180.00,0.00,OPEN,0
667666.506,0,0,0,1.000,1.000,1.000,-90.00,180.00,0.00,OPEN,0
667666.556,0,0,0,1.000,1.000,1.000,-90.00,180.00,0.00,OPEN,0
667666.606,0,0,0,1.000,1.000,1.000,-90.00,180.00,0.00,OPEN,0
667666.656,0,0,0,1.000,1.000,1.000,-90.00,180.00,0.00,OPEN,0
667666.706,0,0,0,1.000,1.000,1.000,-90.00,180.00,0.00,OPEN,0
667666.756,0,0,0,1.000,1.000,1.000,-90.00,180.00,0.00,OPEN,0
667666.806,0,0,0,1.000,1.000,1.000,-90.00,180.00,0.00,OPEN,0
667666.856,0,0,0,1.000,1.000,1.000,-90.00,180.00,0.00,OPEN,0
667666.906,0,0,0,1.000,1.000,1.000,-90.00,180.00,0.00,OPEN,0
667666.956,0,0,0,1.000,1.000,1.000,-90.00,180.00,0.00,OPEN,0
667667.006,0,0,0,1.000,1.000,1.000,-90.00,180.00,0.00,OPEN,0
667667.056,0,0,0,1.000,1.000,1.000,-90.00,180.00,0.00,OPEN,0
667667.106,0,0,0,1.000,1.000,1.000,-90.00,180.00,0.00,OPEN,0
667667.155,0,0,0,1.000,1.000,1.000,-90.00,180.00,0.00,OPEN,0
667667.206,0,0,0,1.000,1.000,1.000,-90.00,180.00,0.00,OPEN,0
667667.255,0,0,0,1.000,1.000,1.000,-90.00,180.00,0.00,OPEN,0
667667.306,0,0,0,1.000,1.000,1.000,-90.00,180.00,0.00,OPEN,0
667667.356,0,0,0,1.000,1.000,1.000,-90.00,180.00,0.00,OPEN,0
667667.407,0,0,0,1.000,1.000,1.000,-90.00,180.00,0.00,OPEN,0
667667.457,0,0,0,1.000,1.000,1.000,-90.00,180.00,0.00,OPEN,0
667667.507,0,0,0,1.000,1.000,1.000,-90.00,180.00,0.00,OPEN,0
667667.557,0,0,0,1.000,1.000,1.000,-90.00,180.00,0.00,OPEN,0
667667.606,0,0,0,1.000,1.000,1.000,-90.00,180.00,0.00,OPEN,0
667667.656,0,0,0,1.000,1.000,1.000,-90.00,180.00,0.00,OPEN,0
667667.707,0,0,0,1.000,1.000,1.000,-90.00,180.00,0.00,OPEN,0
667667.766,0,0,0,1.000,1.000,1.000,-90.00,180.00,0.00,OPEN,0
667667.808,0,0,0,1.000,1.000,1.000,-90.00,180.00,0.00,OPEN,0
667667.857,0,0,0,1.000,1.000,1.000,-90.00,180.00,0.00,OPEN,0
667667.906,0,0,0,1.000,1.000,1.000,-90.00,180.00,0.00,OPEN,0
667667.955,0,0,0,1.000,1.000,1.000,-90.00,180.00,0.00,OPEN,0
667668.006,0,0,0,1.000,1.000,1.000,-90.00,180.00,0.00,OPEN,0
667668.056,0,0,0,1.000,1.000,1.000,-90.00,180.00,0.00,OPEN,0
667668.106,0,0,0,1.000,1.000,1.000,-90.00,180.00,0.00,OPEN,0
667668.156,0,0,0,1.000,1.000,1.000,-90.00,180.00,0.00,OPEN,0
667668.207,0,0,0,1.000,1.000,1.000,-90.00,180.00,0.00,OPEN,0
667668.256,0,0,0,1.000,1.000,1.000,-90.00,180.00,0.00,OPEN,0
667668.306,0,0,0,1.000,1.000,1.000,-90.00,180.00,0.00,OPEN,0
667668.356,0,0,0,1.000,1.000,1.000,-90.00,180.00,0.00,OPEN,0
667668.406,0,0,0,1.000,1.000,1.000,-90.00,180.00,0.00,OPEN,0
667668.456,0,0,0,1.000,1.000,1.000,-90.00,180.00,0.00,OPEN,0
667668.506,0,0,0,1.000,1.000,1.000,-90.00,180.00,0.00,OPEN,0
667668.556,0,0,0,1.000,1.000,1.000,-90.00,180.00,0.00,OPEN,0
667668.606,0,0,0,1.000,1.000,1.000,-90.00,180.00,0.00,OPEN,0
667668.656,0,0,0,1.000,1.000,1.000,-90.00,180.00,0.00,OPEN,0
667668.706,0,0,0,1.000,1.000,1.000,-90.00,180.00,0.00,OPEN,0
667668.756,0,0,0,1.000,1.000,1.000,-90.00,180.00,0.00,OPEN,0
667668.806,0,0,0,1.000,1.000,1.000,-90.00,180.00,0.00,OPEN,0
667668.856,0,0,0,1.000,1.000,1.000,-90.00,180.00,0.00,OPEN,0
667668.906,0,0,0,1.000,1.000,1.000,-90.00,180.00,0.00,OPEN,0
667668.956,0,0,0,0.999,1.000,1.000,-90.00,180.00,0.00,OPEN,0
667669.006,0,0,0,0.992,1.000,1.000,-90.00,180.00,0.00,OPEN,0
667669.056,0,0,0,0.991,1.000,1.000,-90.00,180.00,0.00,OPEN,0
667669.106,0,0,0,0.997,1.000,1.000,-90.00,180.00,0.00,OPEN,0
667669.155,0,0,0,0.992,1.000,1.000,-90.00,180.00,0.00,OPEN,0
667669.206,0,0,0,0.989,1.000,1.000,-90.00,180.00,0.00,OPEN,0
667669.256,0,0,0,0.995,1.000,1.000,-90.00,180.00,0.00,OPEN,0
667669.307,0,0,0,0.987,1.000,1.000,-90.00,180.00,0.00,OPEN,0
667669.356,0,0,0,0.986,1.000,1.000,-90.00,180.00,0.00,OPEN,0
667669.406,0,0,0,0.989,1.000,1.000,-90.00,180.00,0.00,OPEN,0
667669.456,0,0,0,0.998,0.999,1.000,-90.00,180.00,0.00,OPEN,0
667669.506,0,0,0,0.999,0.950,1.000,-90.00,180.00,0.00,OPEN,0
667669.556,0,0,0,0.999,0.765,1.000,-90.00,180.00,0.00,OPEN,0
667669.606,0,0,0,0.995,0.989,1.000,-90.00,180.00,0.00,OPEN,0
667669.656,0,0,0,0.985,0.999,1.000,-90.00,180.00,0.00,OPEN,0
667669.706,0,0,0,0.989,1.000,1.000,-90.00,180.00,0.00,OPEN,0
667669.756,0,0,0,0.994,1.000,1.000,-90.00,180.00,0.00,OPEN,0
667669.806,0,0,0,0.997,1.000,1.000,-90.00,180.00,0.00,OPEN,0
667669.856,0,0,0,0.999,1.000,1.000,-90.00,180.00,0.00,OPEN,0
667669.906,0,0,0,0.999,1.000,1.000,-90.00,180.00,0.00,OPEN,0
667669.956,0,0,0,0.996,1.000,1.000,-90.00,180.00,0.00,OPEN,0
667670.006,0,0,0,0.999,1.000,1.000,-90.00,180.00,0.00,OPEN,0
667670.056,0,0,0,1.000,1.000,1.000,-90.00,180.00,0.00,OPEN,0
667670.106,0,0,0,1.000,1.000,1.000,-90.00,180.00,0.00,OPEN,0
667670.156,0,0,0,1.000,1.000,0.999,-90.00,180.00,0.00,OPEN,0
667670.206,0,0,0,1.000,1.000,0.998,-90.00,180.00,0.00,OPEN,0
667670.256,0,0,0,1.000,1.000,0.996,-90.00,180.00,0.00,OPEN,0
667670.305,0,0,0,1.000,1.000,0.994,-90.00,180.00,0.00,OPEN,0
667670.356,0,0,0,1.000,1.000,0.993,-90.00,180.00,0.00,OPEN,0
667670.406,0,0,0,1.000,1.000,0.992,-90.00,180.00,0.00,OPEN,0
667670.455,0,0,0,1.000,1.000,0.990,-90.00,180.00,0.00,OPEN,0
667670.505,0,1,0,1.000,1.000,0.988,-90.00,180.00,0.00,OPEN,0
667670.556,0,1,0,1.000,1.000,0.987,-90.00,180.00,0.00,OPEN,0
667670.606,0,1,0,1.000,1.000,0.986,-90.00,180.00,0.00,OPEN,0
667670.656,0,1,0,1.000,1.000,0.986,-90.00,180.00,0.00,OPEN,0
667670.706,0,1,0,1.000,1.000,0.989,-90.00,180.00,0.00,OPEN,0
667670.756,0,1,0,1.000,1.000,0.991,-90.00,180.00,0.00,OPEN,0
667670.821,0,1,0,1.000,1.000,0.993,-90.00,180.00,0.00,OPEN,0
667670.857,0,1,0,1.000,0.999,0.994,-90.00,180.00,0.00,OPEN,0
667670.906,0,1,0,1.000,0.999,0.994,-90.00,180.00,0.00,OPEN,0
667670.956,0,1,0,1.000,0.999,0.994,-90.00,180.00,0.00,OPEN,0
667671.006,0,1,0,1.000,0.999,0.994,-90.00,180.00,0.00,OPEN,0
667671.056,0,1,0,1.000,0.999,0.993,-90.00,180.00,0.00,OPEN,0
667671.106,0,1,0,1.000,0.999,0.993,-90.00,180.00,0.00,OPEN,0
667671.156,0,1,0,1.000,0.999,0.991,-90.00,180.00,0.00,OPEN,0
667671.207,0,1,0,1.000,0.999,0.989,-90.00,180.00,0.00,OPEN,0
667671.256,0,1,0,1.000,1.000,0.989,-90.00,180.00,0.00,OPEN,0
667671.306,0,1,0,1.000,1.000,0.988,-90.00,180.00,0.00,OPEN,0
667671.356,0,1,0,1.000,1.000,0.991,-90.00,180.00,0.00,OPEN,0
667671.406,0,1,0,1.000,1.000,0.995,-90.00,180.00,0.00,OPEN,0
667671.456,0,1,0,1.000,1.000,0.997,-90.00,180.00,0.00,OPEN,0
667671.506,0,1,0,1.000,1.000,0.998,-90.00,180.00,0.00,OPEN,0
667671.556,0,1,0,1.000,1.000,0.999,-90.00,180.00,0.00,OPEN,0
667671.606,0,1,0,1.000,1.000,0.999,-90.00,180.00,0.00,OPEN,0
667671.656,0,1,0,1.000,1.000,0.999,-90.00,180.00,0.00,OPEN,0
667671.706,0,1,0,1.000,1.000,0.999,-90.00,180.00,0.00,OPEN,0
667671.756,0,1,0,1.000,1.000,0.999,-90.00,180.00,0.00,OPEN,0
667671.806,0,1,0,1.000,1.000,0.998,-90.00,180.00,0.00,OPEN,0
667671.856,0,1,0,1.000,1.000,0.997,-90.00,180.00,0.00,OPEN,0
667671.906,0,1,0,1.000,1.000,0.994,-90.00,180.00,0.00,OPEN,0
667671.956,0,1,0,1.000,0.999,0.988,-90.00,180.00,0.00,OPEN,0
667672.006,0,1,0,1.000,0.999,0.982,-90.00,180.00,0.00,OPEN,0
667672.057,0,1,0,1.000,0.998,0.985,-90.00,180.00,0.00,OPEN,0
667672.106,0,1,0,1.000,0.997,0.991,-90.00,180.00,0.00,OPEN,0
667672.156,0,1,0,1.000,0.997,0.995,-90.00,180.00,0.00,OPEN,0
667672.206,0,1,0,1.000,0.996,0.997,-90.00,180.00,0.00,OPEN,0
667672.256,0,1,0,1.000,0.995,0.998,-90.00,180.00,0.00,OPEN,0
667672.306,0,1,0,1.000,0.996,0.999,-90.00,180.00,0.00,OPEN,0
667672.356,0,1,0,1.000,0.997,0.998,-90.00,180.00,0.00,OPEN,0
667672.406,0,1,0,1.000,0.997,0.998,-90.00,180.00,0.00,OPEN,0
667672.456,0,1,0,1.000,0.998,0.997,-90.00,180.00,0.00,OPEN,0
667672.506,0,1,0,1.000,0.998,0.994,-90.00,180.00,0.00,OPEN,0
667672.556,0,1,0,1.000,0.999,0.988,-90.00,180.00,0.00,OPEN,0
667672.606,0,1,0,1.000,0.999,0.979,-90.00,180.00,0.00,OPEN,0
667672.656,0,1,0,1.000,0.999,0.976,-90.00,180.00,0.00,OPEN,0
667672.707,0,1,0,1.000,0.999,0.981,-90.00,180.00,0.00,OPEN,0
667672.756,0,1,0,1.000,0.999,0.984,-90.00,180.00,0.00,OPEN,0
667672.806,0,1,0,1.000,0.998,0.988,-90.00,180.00,0.00,OPEN,0
667672.856,0,1,0,1.000,0.998,0.993,-90.00,180.00,0.00,OPEN,0
667672.906,0,1,0,1.000,0.998,0.995,-90.00,180.00,0.00,OPEN,0
667672.956,0,1,0,1.000,0.998,0.997,-90.00,180.00,0.00,OPEN,0
667673.008,0,1,0,1.000,0.999,0.998,-90.00,180.00,0.00,OPEN,0
667673.056,0,1,0,1.000,0.999,0.998,-90.00,180.00,0.00,OPEN,0
667673.106,0,1,0,1.000,0.999,0.999,-90.00,180.00,0.00,OPEN,0
667673.170,0,1,0,1.000,0.999,0.999,-90.00,180.00,0.00,OPEN,0
667673.209,0,1,0,1.000,1.000,0.999,-90.00,180.00,0.00,OPEN,0
667673.256,0,1,0,1.000,1.000,0.998,-90.00,180.00,0.00,OPEN,0
667673.307,0,1,0,1.000,1.000,0.998,-90.00,180.00,0.00,OPEN,0
667673.356,0,1,0,1.000,1.000,0.998,-90.00,180.00,0.00,OPEN,0
667673.406,0,1,0,1.000,1.000,0.999,-90.00,180.00,0.00,OPEN,0
667673.456,0,1,0,1.000,1.000,0.999,-90.00,180.00,0.00,OPEN,0
667673.506,0,1,0,1.000,1.000,1.000,-90.00,180.00,0.00,OPEN,0
667673.556,0,1,0,1.000,1.000,1.000,-90.00,180.00,0.00,OPEN,0
667673.606,0,1,0,1.000,1.000,1.000,-90.00,180.00,0.00,OPEN,0
667673.656,0,1,0,1.000,1.000,1.000,-90.00,180.00,0.00,OPEN,0
667673.706,0,1,0,1.000,1.000,1.000,-90.00,180.00,0.00,OPEN,0
667673.756,0,1,0,1.000,1.000,1.000,-90.00,180.00,0.00,OPEN,0
667673.806,0,1,0,1.000,1.000,1.000,-90.00,180.00,0.00,OPEN,0
667673.856,0,1,0,1.000,1.000,1.000,-90.00,180.00,0.00,OPEN,0
667673.906,0,1,0,1.000,1.000,1.000,-90.00,180.00,0.00,OPEN,0
667673.955,0,1,0,1.000,1.000,1.000,-90.00,180.00,0.00,OPEN,0
667674.006,0,1,0,1.000,1.000,0.999,-90.00,180.00,0.00,OPEN,0
667674.056,0,1,0,1.000,1.000,0.999,-90.00,180.00,0.00,OPEN,0
667674.105,0,1,0,1.000,1.000,0.999,-90.00,180.00,0.00,OPEN,0
667674.156,0,1,0,1.000,1.000,0.999,-90.00,180.00,0.00,OPEN,0
667674.206,0,1,0,1.000,1.000,0.999,-90.00,180.00,0.00,OPEN,0
667674.256,0,1,0,1.000,1.000,0.999,-90.00,180.00,0.00,OPEN,0
667674.306,0,1,0,1.000,1.000,0.999,-90.00,180.00,0.00,OPEN,0
667674.356,0,1,0,1.000,1.000,0.999,-90.00,180.00,0.00,OPEN,0
667674.406,0,1,0,1.000,1.000,0.999,-90.00,180.00,0.00,OPEN,0
667674.456,0,1,0,1.000,1.000,0.999,-90.00,180.00,0.00,OPEN,0
667674.506,0,1,0,1.000,1.000,0.998,-90.00,180.00,0.00,OPEN,0
667674.556,0,1,0,1.000,1.000,0.996,-90.00,180.00,0.00,OPEN,0
667674.606,0,1,0,1.000,0.999,0.992,-90.00,180.00,0.00,OPEN,0
667674.657,0,1,0,1.000,0.998,0.985,-90.00,180.00,0.00,OPEN,0
667674.706,0,1,0,1.000,0.988,0.978,-90.00,180.00,0.00,OPEN,0
667674.756,0,1,0,1.000,0.924,0.974,-90.00,180.00,0.00,OPEN,0
667674.806,0,1,0,1.000,0.623,0.976,-90.00,180.00,0.00,OPEN,0
667674.856,0,1,0,1.000,0.959,0.989,-90.00,180.00,0.00,OPEN,0
667674.906,0,1,0,1.000,0.995,0.995,-90.00,180.00,0.00,OPEN,0
667674.956,0,1,0,1.000,0.999,0.996,-90.00,180.00,0.00,OPEN,0
667675.006,0,1,0,1.000,1.000,0.998,-90.00,180.00,0.00,OPEN,0
667675.056,0,1,0,1.000,1.000,0.998,-90.00,180.00,0.00,OPEN,0
667675.106,0,1,0,1.000,1.000,0.999,-90.00,180.00,0.00,OPEN,0
667675.155,0,1,0,1.000,1.000,0.999,-90.00,180.00,0.00,OPEN,0
667675.210,0,1,0,1.000,1.000,0.999,-90.00,180.00,0.00,OPEN,0
667675.256,0,1,0,1.000,0.999,1.000,-90.00,180.00,0.00,OPEN,0
667675.306,0,1,0,1.000,0.999,1.000,-90.00,180.00,0.00,OPEN,0
667675.356,0,1,0,1.000,0.998,1.000,-90.00,180.00,0.00,OPEN,0
667675.405,0,1,0,1.000,0.996,1.000,-90.00,180.00,0.00,OPEN,0
667675.456,0,1,0,0.999,0.994,1.000,-90.00,180.00,0.00,OPEN,0
667675.505,0,1,0,0.999,0.986,1.000,-90.00,180.00,0.00,OPEN,0
667675.556,0,1,0,0.999,0.981,1.000,-90.00,180.00,0.00,OPEN,0
667675.606,0,1,0,0.999,0.985,1.000,-90.00,180.00,0.00,OPEN,0
667675.656,0,1,0,0.999,0.996,1.000,-90.00,180.00,0.00,OPEN,0
667675.706,0,1,0,0.997,0.996,1.000,-90.00,180.00,0.00,OPEN,0
667675.756,0,0,0,0.997,1.000,1.000,-90.00,180.00,0.00,OPEN,0
667675.806,0,0,0,0.994,1.000,1.000,-90.00,180.00,0.00,OPEN,0
667675.856,0,0,0,0.998,1.000,1.000,-90.00,180.00,0.00,OPEN,0
667675.906,0,0,0,0.999,1.000,1.000,-90.00,180.00,0.00,OPEN,0
667675.956,0,0,0,1.000,1.000,1.000,-90.00,180.00,0.00,OPEN,0
667676.006,0,0,0,1.000,1.000,1.000,-90.00,180.00,0.00,OPEN,0
667676.056,0,0,0,1.000,1.000,1.000,-90.00,180.00,0.00,OPEN,0
667676.106,0,0,0,1.000,1.000,1.000,-90.00,180.00,0.00,OPEN,0
667676.156,0,0,0,0.999,1.000,1.000,-90.00,180.00,0.00,OPEN,0
667676.214,0,0,0,1.000,1.000,1.000,-90.00,180.00,0.00,OPEN,0
667676.257,0,0,0,1.000,1.000,1.000,-90.00,180.00,0.00,OPEN,0
667676.305,0,0,0,1.000,1.000,1.000,-90.00,180.00,0.00,OPEN,0
667676.356,0,0,0,1.000,1.000,1.000,-90.00,180.00,0.00,OPEN,0
667676.406,0,0,0,1.000,1.000,1.000,-90.00,180.00,0.00,OPEN,0
667676.456,0,0,0,1.000,1.000,1.000,-90.00,180.00,0.00,OPEN,0
667676.506,0,0,0,1.000,1.000,1.000,-90.00,180.00,0.00,OPEN,0
667676.556,0,0,0,1.000,1.000,1.000,-90.00,180.00,0.00,OPEN,0
667676.606,0,0,0,1.000,1.000,1.000,-90.00,180.00,0.00,OPEN,0
667676.656,0,0,0,1.000,1.000,1.000,-90.00,180.00,0.00,OPEN,0
667676.706,0,0,0,1.000,1.000,1.000,-90.00,180.00,0.00,OPEN,0
667676.756,0,0,0,1.000,1.000,1.000,-90.00,180.00,0.00,OPEN,0
667676.806,0,0,0,1.000,1.000,1.000,-90.00,180.00,0.00,OPEN,0
667676.856,0,0,0,1.000,1.000,1.000,-90.00,180.00,0.00,OPEN,0
667676.906,0,0,0,1.000,1.000,1.000,-90.00,180.00,0.00,OPEN,0
667676.956,0,0,0,1.000,1.000,1.000,-90.00,180.00,0.00,OPEN,0
667677.006,0,0,0,1.000,1.000,1.000,-90.00,180.00,0.00,OPEN,0
667677.056,0,0,0,1.000,1.000,1.000,-90.00,180.00,0.00,OPEN,0
667677.106,0,0,0,1.000,1.000,1.000,-90.00,180.00,0.00,OPEN,0
667677.155,0,0,0,1.000,1.000,1.000,-90.00,180.00,0.00,OPEN,0
667677.206,0,0,0,1.000,1.000,1.000,-90.00,180.00,0.00,OPEN,0
667677.256,0,0,0,1.000,1.000,1.000,-90.00,180.00,0.00,OPEN,0
667677.305,0,0,0,1.000,1.000,1.000,-90.00,180.00,0.00,OPEN,0
667677.356,0,0,0,1.000,1.000,1.000,-90.00,180.00,0.00,OPEN,0
667677.406,0,0,0,1.000,1.000,1.000,-90.00,180.00,0.00,OPEN,0
667677.456,0,0,0,1.000,1.000,1.000,-90.00,180.00,0.00,OPEN,0
667677.506,0,0,0,1.000,1.000,1.000,-90.00,180.00,0.00,OPEN,0
667677.556,0,0,0,1.000,1.000,1.000,-90.00,180.00,0.00,OPEN,0
667677.606,0,0,0,1.000,1.000,1.000,-90.00,180.00,0.00,OPEN,0
667677.656,0,0,0,1.000,1.000,1.000,-90.00,180.00,0.00,OPEN,0
667677.706,0,0,0,1.000,1.000,1.000,-90.00,180.00,0.00,OPEN,0
667677.756,0,0,0,1.000,1.000,1.000,-90.00,180.00,0.00,OPEN,0
667677.806,0,0,0,1.000,1.000,1.000,-90.00,180.00,0.00,OPEN,0
667677.856,0,0,0,1.000,1.000,1.000,-90.00,180.00,0.00,OPEN,0
667677.906,0,0,0,1.000,1.000,1.000,-90.00,180.00,0.00,OPEN,0
667677.956,0,0,0,1.000,1.000,1.000,-90.00,180.00,0.00,OPEN,0
667678.006,0,0,0,1.000,1.000,1.000,-90.00,180.00,0.00,OPEN,0
667678.056,0,0,0,1.000,1.000,1.000,-90.00,180.00,0.00,OPEN,0
667678.106,0,0,0,1.000,1.000,1.000,-90.00,180.00,0.00,OPEN,0
667678.156,0,0,0,1.000,1.000,1.000,-90.00,180.00,0.00,OPEN,0
667678.206,0,0,0,1.000,1.000,1.000,-90.00,180.00,0.00,OPEN,0
667678.256,0,0,0,1.000,1.000,1.000,-90.00,180.00,0.00,OPEN,0
667678.306,0,0,0,1.000,1.000,1.000,-90.00,180.00,0.00,OPEN,0
667678.356,0,0,0,1.000,1.000,1.000,-90.00,180.00,0.00,OPEN,0
667678.406,0,0,0,1.000,1.000,1.000,-90.00,180.00,0.00,OPEN,0
667678.456,0,0,0,1.000,1.000,1.000,-90.00,180.00,0.00,OPEN,0
667678.506,0,0,0,1.000,1.000,1.000,-90.00,180.00,0.00,OPEN,0
667678.555,0,0,0,1.000,1.000,1.000,-90.00,180.00,0.00,OPEN,0
667678.606,0,0,0,1.000,1.000,1.000,-90.00,180.00,0.00,OPEN,0
667678.656,0,0,0,1.000,1.000,1.000,-90.00,180.00,0.00,OPEN,0
667678.706,0,0,0,1.000,1.000,1.000,-90.00,180.00,0.00,OPEN,0
667678.756,0,0,0,1.000,1.000,1.000,-90.00,180.00,0.00,OPEN,0
667678.806,0,0,0,1.000,1.000,1.000,-90.00,180.00,0.00,OPEN,0
667678.856,0,0,0,1.000,1.000,1.000,-90.00,180.00,0.00,OPEN,0
667678.906,0,0,0,1.000,1.000,1.000,-90.00,180.00,0.00,OPEN,0
667678.956,0,0,0,1.000,1.000,1.000,-90.00,180.00,0.00,OPEN,0
667679.006,0,0,0,1.000,1.000,1.000,-90.00,180.00,0.00,OPEN,0
667679.055,0,0,0,1.000,1.000,1.000,-90.00,180.00,0.00,OPEN,0
667679.106,0,0,0,1.000,1.000,1.000,-90.00,180.00,0.00,OPEN,0
667679.156,0,0,0,1.000,1.000,1.000,-90.00,180.00,0.00,OPEN,0
667679.206,0,0,0,1.000,1.000,1.000,-90.00,180.00,0.00,OPEN,0
667679.256,0,0,0,1.000,1.000,1.000,-90.00,180.00,0.00,OPEN,0
667679.305,0,0,0,1.000,1.000,1.000,-90.00,180.00,0.00,OPEN,0
667679.356,0,0,0,1.000,1.000,1.000,-90.00,180.00,0.00,OPEN,0
667679.406,0,0,0,1.000,1.000,1.000,-90.00,180.00,0.00,OPEN,0
667679.456,0,0,0,1.000,1.000,1.000,-90.00,180.00,0.00,OPEN,0
667679.506,0,0,0,1.000,1.000,1.000,-90.00,180.00,0.00,OPEN,0
667679.556,0,0,0,1.000,1.000,1.000,-90.00,180.00,0.00,OPEN,0
667679.621,0,0,0,1.000,1.000,1.000,-90.00,180.00,0.00,OPEN,0
667679.657,0,0,0,1.000,1.000,1.000,-90.00,180.00,0.00,OPEN,0
667679.706,0,0,0,1.000,1.000,1.000,-90.00,180.00,0.00,OPEN,0
667679.756,0,0,0,1.000,1.000,1.000,-90.00,180.00,0.00,OPEN,0
667679.806,0,0,0,1.000,1.000,1.000,-90.00,180.00,0.00,OPEN,0
667679.856,0,0,0,1.000,1.000,1.000,-90.00,180.00,0.00,OPEN,0
667679.906,0,0,0,1.000,1.000,1.000,-90.00,180.00,0.00,OPEN,0
667679.956,0,0,0,1.000,1.000,1.000,-90.00,180.00,0.00,OPEN,0
667680.006,0,0,0,1.000,1.000,1.000,-90.00,180.00,0.00,OPEN,0
667680.056,0,0,0,1.000,1.000,1.000,-90.00,180.00,0.00,OPEN,0
667680.106,0,0,0,1.000,1.000,1.000,-90.00,180.00,0.00,OPEN,0
667680.156,0,0,0,1.000,1.000,1.000,-90.00,180.00,0.00,OPEN,0
667680.207,0,0,0,1.000,1.000,1.000,-90.00,180.00,0.00,OPEN,0
667680.256,0,0,0,1.000,1.000,1.000,-90.00,180.00,0.00,OPEN,0
667680.306,0,0,0,1.000,1.000,1.000,-90.00,180.00,0.00,OPEN,0
667680.356,0,0,0,1.000,1.000,1.000,-90.00,180.00,0.00,OPEN,0
667680.406,0,0,0,1.000,1.000,1.000,-90.00,180.00,0.00,OPEN,0
667680.456,0,0,0,1.000,1.000,1.000,-90.00,180.00,0.00,OPEN,0
667680.506,0,0,0,1.000,1.000,1.000,-90.00,180.00,0.00,OPEN,0
667680.556,0,0,0,1.000,1.000,1.000,-90.00,180.00,0.00,OPEN,0
667680.606,0,0,0,1.000,1.000,1.000,-90.00,180.00,0.00,OPEN,0
667680.656,0,0,0,1.000,1.000,1.000,-90.00,180.00,0.00,OPEN,0
667680.706,0,0,0,1.000,1.000,1.000,-90.00,180.00,0.00,OPEN,0
667680.756,0,0,0,1.000,1.000,1.000,-90.00,180.00,0.00,OPEN,0
667680.805,0,0,0,1.000,1.000,1.000,-90.00,180.00,0.00,OPEN,0
667680.856,0,0,0,1.000,1.000,1.000,-90.00,180.00,0.00,OPEN,0
667680.906,0,0,0,1.000,1.000,1.000,-90.00,180.00,0.00,OPEN,0
667680.955,0,0,0,1.000,1.000,1.000,-90.00,180.00,0.00,OPEN,0
667681.006,0,0,0,1.000,1.000,1.000,-90.00,180.00,0.00,OPEN,0
667681.056,0,0,0,1.000,1.000,1.000,-90.00,180.00,0.00,OPEN,0
667681.106,0,0,0,1.000,1.000,1.000,-90.00,180.00,0.00,OPEN,0
667681.156,0,0,0,1.000,1.000,1.000,-90.00,180.00,0.00,OPEN,0
667681.206,0,0,0,1.000,1.000,1.000,-90.00,180.00,0.00,OPEN,0
667681.256,0,0,0,1.000,1.000,1.000,-90.00,180.00,0.00,OPEN,0
667681.306,0,0,0,1.000,1.000,1.000,-90.00,180.00,0.00,OPEN,0
667681.356,0,0,0,1.000,1.000,1.000,-90.00,180.00,0.00,OPEN,0
667681.406,0,0,0,1.000,1.000,1.000,-90.00,180.00,0.00,OPEN,0
667681.456,0,0,0,1.000,1.000,1.000,-90.00,180.00,0.00,OPEN,0
667681.505,0,0,0,1.000,1.000,1.000,-90.00,180.00,0.00,OPEN,0
667681.556,0,0,0,1.000,1.000,1.000,-90.00,180.00,0.00,OPEN,0
667681.606,0,0,0,1.000,1.000,1.000,-90.00,180.00,0.00,OPEN,0
667681.656,0,0,0,1.000,1.000,1.000,-90.00,180.00,0.00,OPEN,0
667681.706,0,0,0,1.000,1.000,1.000,-90.00,180.00,0.00,OPEN,0
667681.756,0,0,0,1.000,1.000,1.000,-90.00,180.00,0.00,OPEN,0
667681.806,0,0,0,1.000,1.000,1.000,-90.00,180.00,0.00,OPEN,0
667681.856,0,0,0,1.000,1.000,1.000,-90.00,180.00,0.00,OPEN,0
667681.906,0,0,0,1.000,1.000,1.000,-90.00,180.00,0.00,OPEN,0
667681.956,0,0,0,1.000,1.000,1.000,-90.00,180.00,0.00,OPEN,0
667682.006,0,0,0,1.000,1.000,1.000,-90.00,180.00,0.00,OPEN,0
667682.056,0,0,0,1.000,1.000,1.000,-90.00,180.00,0.00,OPEN,0
667682.106,0,0,0,1.000,1.000,1.000,-90.00,180.00,0.00,OPEN,0
667682.168,0,0,0,0.999,1.000,1.000,-90.00,180.00,0.00,OPEN,0
667682.207,0,0,0,0.858,1.000,1.000,-90.00,180.00,0.00,OPEN,0
667682.256,0,0,0,0.484,1.000,1.000,-90.00,180.00,0.00,OPEN,0
667682.306,0,0,0,0.481,1.000,1.000,-90.00,180.00,0.00,OPEN,0
667682.356,0,0,0,0.604,1.000,1.000,-90.00,180.00,0.00,OPEN,0
667682.406,0,0,0,0.670,1.000,1.000,-90.00,180.00,0.00,OPEN,0
667682.456,0,0,0,0.776,1.000,1.000,-90.00,180.00,0.00,OPEN,0
667682.506,0,0,0,0.937,1.000,1.000,-90.00,180.00,0.00,OPEN,0
667682.556,0,0,0,0.997,1.000,1.000,-90.00,180.00,0.00,OPEN,0
667682.606,0,0,0,1.000,1.000,1.000,-90.00,180.00,0.00,OPEN,0
667682.656,0,0,0,1.000,1.000,1.000,-90.00,180.00,0.00,OPEN,0
667682.706,0,0,0,1.000,1.000,1.000,-90.00,180.00,0.00,OPEN,0
667682.756,3,0,0,1.000,1.000,1.000,-90.00,180.00,0.00,OPEN,0
667682.806,3,0,0,1.000,1.000,1.000,-90.00,180.00,0.00,OPEN,0
667682.856,3,0,0,1.000,1.000,1.000,-90.00,180.00,0.00,OPEN,0
667682.906,3,0,0,1.000,1.000,1.000,-90.00,180.00,0.00,OPEN,0
667682.956,3,0,0,1.000,1.000,1.000,-90.00,180.00,0.00,OPEN,0
667683.006,3,0,0,1.000,1.000,1.000,-90.00,180.00,0.00,OPEN,0
667683.056,3,0,0,1.000,1.000,1.000,-90.00,180.00,0.00,OPEN,0
667683.106,3,0,0,1.000,1.000,1.000,-90.00,180.00,0.00,OPEN,0
667683.155,3,0,0,1.000,1.000,1.000,-90.00,180.00,0.00,OPEN,0
667683.206,3,0,0,1.000,1.000,1.000,-90.00,180.00,0.00,OPEN,0
667683.256,3,0,0,1.000,1.000,1.000,-90.00,180.00,0.00,OPEN,0
667683.306,3,0,0,1.000,1.000,1.000,-90.00,180.00,0.00,OPEN,0
667683.356,3,0,0,1.000,1.000,1.000,-90.00,180.00,0.00,OPEN,0
667683.406,3,0,0,1.000,1.000,1.000,-90.00,180.00,0.00,OPEN,0
667683.456,3,0,0,1.000,1.000,1.000,-90.00,180.00,0.00,OPEN,0
667683.506,3,0,0,1.000,1.000,1.000,-90.00,180.00,0.00,OPEN,0
667683.556,3,0,0,1.000,1.000,1.000,-90.00,180.00,0.00,OPEN,0
667683.606,3,0,0,1.000,1.000,1.000,-90.00,180.00,0.00,OPEN,0
667683.656,3,0,0,1.000,1.000,1.000,-90.00,180.00,0.00,OPEN,0
667683.706,3,0,0,1.000,1.000,1.000,-90.00,180.00,0.00,OPEN,0
667683.756,3,0,0,1.000,1.000,1.000,-90.00,180.00,0.00,OPEN,0
667683.806,3,0,0,1.000,1.000,1.000,-90.00,180.00,0.00,OPEN,0
667683.856,3,0,0,1.000,1.000,1.000,-90.00,180.00,0.00,OPEN,0
667683.906,3,0,0,1.000,1.000,1.000,-90.00,180.00,0.00,OPEN,0
667683.956,3,0,0,1.000,1.000,1.000,-90.00,180.00,0.00,OPEN,0
667684.008,3,0,0,1.000,1.000,1.000,-90.00,180.00,0.00,OPEN,0
667684.056,3,0,0,1.000,1.000,1.000,-90.00,180.00,0.00,OPEN,0
667684.106,3,0,0,1.000,1.000,1.000,-90.00,180.00,0.00,OPEN,0
667684.156,3,0,0,1.000,1.000,1.000,-90.00,180.00,0.00,OPEN,0
667684.206,3,0,0,1.000,1.000,1.000,-90.00,180.00,0.00,OPEN,0
667684.256,3,0,0,1.000,1.000,1.000,-90.00,180.00,0.00,OPEN,0
667684.306,3,0,0,1.000,1.000,1.000,-90.00,180.00,0.00,OPEN,0
667684.356,3,0,0,1.000,1.000,1.000,-90.00,180.00,0.00,OPEN,0
667684.421,3,0,0,1.000,1.000,1.000,-90.00,180.00,0.00,OPEN,0
667684.461,3,0,0,1.000,1.000,1.000,-90.00,180.00,0.00,OPEN,0
667684.506,3,0,0,1.000,1.000,1.000,-90.00,180.00,0.00,OPEN,0
667684.556,3,0,0,1.000,1.000,1.000,-90.00,180.00,0.00,OPEN,0
667684.606,3,0,0,1.000,1.000,1.000,-90.00,180.00,0.00,OPEN,0
667684.657,3,0,0,1.000,1.000,1.000,-90.00,180.00,0.00,OPEN,0
667684.706,3,0,0,1.000,1.000,1.000,-90.00,180.00,0.00,OPEN,0
667684.756,3,0,0,1.000,1.000,1.000,-90.00,180.00,0.00,OPEN,0
667684.807,3,0,0,1.000,1.000,1.000,-90.00,180.00,0.00,OPEN,0
667684.856,3,0,0,1.000,1.000,1.000,-90.00,180.00,0.00,OPEN,0
667684.906,3,0,0,1.000,1.000,1.000,-90.00,180.00,0.00,OPEN,0
667684.956,3,0,0,1.000,1.000,1.000,-90.00,180.00,0.00,OPEN,0
667685.006,3,0,0,1.000,1.000,1.000,-90.00,180.00,0.00,OPEN,0
667685.056,3,0,0,1.000,1.000,1.000,-90.00,180.00,0.00,OPEN,0
667685.106,3,0,0,1.000,1.000,1.000,-90.00,180.00,0.00,OPEN,0
667685.156,3,0,0,1.000,1.000,1.000,-90.00,180.00,0.00,OPEN,0
667685.206,3,0,0,1.000,1.000,1.000,-90.00,180.00,0.00,OPEN,0
667685.256,3,0,0,1.000,1.000,1.000,-90.00,180.00,0.00,OPEN,0
667685.306,3,0,0,1.000,1.000,1.000,-90.00,180.00,0.00,OPEN,0
667685.356,3,0,0,1.000,1.000,1.000,-90.00,180.00,0.00,OPEN,0
667685.406,3,0,0,1.000,1.000,1.000,-90.00,180.00,0.00,OPEN,0
667685.456,3,0,0,1.000,1.000,1.000,-90.00,180.00,0.00,OPEN,0
667685.506,3,0,0,1.000,1.000,1.000,-90.00,180.00,0.00,OPEN,0
667685.556,3,0,0,1.000,1.000,1.000,-90.00,180.00,0.00,OPEN,0
667685.606,3,0,0,1.000,1.000,1.000,-90.00,180.00,0.00,OPEN,0
667685.655,3,0,0,1.000,1.000,1.000,-90.00,180.00,0.00,OPEN,0
667685.706,3,0,0,1.000,1.000,1.000,-90.00,180.00,0.00,OPEN,0
667685.756,3,0,0,1.000,1.000,1.000,-90.00,180.00,0.00,OPEN,0
667685.806,3,0,0,1.000,1.000,1.000,-90.00,180.00,0.00,OPEN,0
667685.855,3,0,0,1.000,1.000,1.000,-90.00,180.00,0.00,OPEN,0
667685.906,3,0,0,1.000,1.000,1.000,-90.00,180.00,0.00,OPEN,0
667685.955,3,0,0,1.000,1.000,1.000,-90.00,180.00,0.00,OPEN,0
667686.006,3,0,0,1.000,1.000,1.000,-90.00,180.00,0.00,OPEN,0
667686.056,3,0,0,1.000,1.000,1.000,-90.00,180.00,0.00,OPEN,0
667686.106,3,0,0,1.000,1.000,1.000,-90.00,180.00,0.00,OPEN,0
667686.156,3,0,0,1.000,1.000,1.000,-90.00,180.00,0.00,OPEN,0
667686.206,3,0,0,1.000,1.000,1.000,-90.00,180.00,0.00,OPEN,0
667686.256,3,0,0,1.000,1.000,1.000,-90.00,180.00,0.00,OPEN,0
667686.306,3,0,0,1.000,1.000,1.000,-90.00,180.00,0.00,OPEN,0
667686.356,3,0,0,1.000,1.000,1.000,-90.00,180.00,0.00,OPEN,0
667686.406,3,0,0,1.000,1.000,1.000,-90.00,180.00,0.00,OPEN,0
667686.456,3,0,0,1.000,1.000,1.000,-90.00,180.00,0.00,OPEN,0
667686.506,3,0,0,1.000,1.000,1.000,-90.00,180.00,0.00,OPEN,0
667686.556,3,0,0,1.000,1.000,1.000,-90.00,180.00,0.00,OPEN,0
667686.606,3,0,0,1.000,1.000,1.000,-90.00,180.00,0.00,OPEN,0
667686.656,3,0,0,1.000,1.000,1.000,-90.00,180.00,0.00,OPEN,0
667686.706,3,0,0,1.000,1.000,1.000,-90.00,180.00,0.00,OPEN,0
667686.755,3,0,0,1.000,1.000,1.000,-90.00,180.00,0.00,OPEN,0
667686.806,3,0,0,1.000,1.000,1.000,-90.00,180.00,0.00,OPEN,0
667686.855,3,0,0,1.000,1.000,1.000,-90.00,180.00,0.00,OPEN,0
667686.906,3,0,0,1.000,1.000,1.000,-90.00,180.00,0.00,OPEN,0
667686.956,3,0,0,1.000,1.000,1.000,-90.00,180.00,0.00,OPEN,0
667687.006,3,0,0,1.000,1.000,1.000,-90.00,180.00,0.00,OPEN,0
667687.056,3,0,0,1.000,1.000,1.000,-90.00,180.00,0.00,OPEN,0
667687.121,3,0,0,1.000,1.000,1.000,-90.00,180.00,0.00,OPEN,0
667687.158,3,0,0,1.000,1.000,1.000,-90.00,180.00,0.00,OPEN,0
667687.206,3,0,0,1.000,1.000,1.000,-90.00,180.00,0.00,OPEN,0
667687.256,3,0,0,1.000,1.000,1.000,-90.00,180.00,0.00,OPEN,0
667687.306,3,0,0,1.000,1.000,1.000,-90.00,180.00,0.00,OPEN,0
667687.356,3,0,0,1.000,1.000,1.000,-90.00,180.00,0.00,OPEN,0
667687.406,3,0,0,1.000,1.000,1.000,-90.00,180.00,0.00,OPEN,0
667687.456,3,0,0,1.000,1.000,1.000,-90.00,180.00,0.00,OPEN,0
667687.506,3,0,0,1.000,1.000,1.000,-90.00,180.00,0.00,OPEN,0
667687.556,3,0,0,1.000,1.000,1.000,-90.00,180.00,0.00,OPEN,0
667687.606,3,0,0,1.000,1.000,1.000,-90.00,180.00,0.00,OPEN,0
667687.656,3,0,0,1.000,1.000,1.000,-90.00,180.00,0.00,OPEN,0
667687.706,3,0,0,1.000,1.000,1.000,-90.00,180.00,0.00,OPEN,0
667687.756,3,0,0,1.000,1.000,1.000,-90.00,180.00,0.00,OPEN,0
667687.806,3,0,0,1.000,1.000,1.000,-90.00,180.00,0.00,OPEN,0
667687.856,3,0,0,1.000,1.000,1.000,-90.00,180.00,0.00,OPEN,0
667687.906,3,0,0,1.000,1.000,1.000,-90.00,180.00,0.00,OPEN,0
667687.956,3,0,0,1.000,1.000,1.000,-90.00,180.00,0.00,OPEN,0
667688.006,3,0,0,1.000,1.000,1.000,-90.00,180.00,0.00,OPEN,0
667688.056,3,0,0,1.000,1.000,1.000,-90.00,180.00,0.00,OPEN,0
667688.106,3,0,0,0.999,1.000,1.000,-90.00,180.00,0.00,OPEN,0
667688.156,3,0,0,0.975,1.000,1.000,-90.00,180.00,0.00,OPEN,0
667688.206,3,0,0,0.869,1.000,1.000,-90.00,180.00,0.00,OPEN,0
667688.256,3,0,0,0.666,1.000,1.000,-90.00,180.00,0.00,OPEN,0
667688.306,3,0,0,0.511,1.000,1.000,-90.00,180.00,0.00,OPEN,0
667688.356,3,0,0,0.589,1.000,1.000,-90.00,180.00,0.00,OPEN,0
667688.406,3,0,0,0.639,1.000,1.000,-90.00,180.00,0.00,OPEN,0
667688.456,3,0,0,0.562,1.000,1.000,-90.00,180.00,0.00,OPEN,0
667688.506,3,0,0,0.920,1.000,1.000,-90.00,180.00,0.00,OPEN,0
667688.555,3,0,0,1.000,1.000,1.000,-90.00,180.00,0.00,OPEN,0
667688.606,3,0,0,1.000,1.000,1.000,-90.00,180.00,0.00,OPEN,0
667688.656,3,0,0,1.000,1.000,1.000,-90.00,180.00,0.00,OPEN,0
667688.706,3,0,0,1.000,1.000,1.000,-90.00,180.00,0.00,OPEN,0
667688.756,3,0,0,1.000,1.000,1.000,-90.00,180.00,0.00,OPEN,0
667688.806,3,0,0,1.000,1.000,1.000,-90.00,180.00,0.00,OPEN,0
667688.856,0,0,0,1.000,1.000,1.000,-90.00,180.00,0.00,OPEN,0
667688.906,0,0,0,1.000,1.000,1.000,-90.00,180.00,0.00,OPEN,0
667688.956,0,0,0,1.000,1.000,1.000,-90.00,180.00,0.00,OPEN,0
667689.006,0,0,0,1.000,1.000,1.000,-90.00,180.00,0.00,OPEN,0
667689.056,0,0,0,1.000,1.000,1.000,-90.00,180.00,0.00,OPEN,0
667689.106,0,0,0,1.000,1.000,1.000,-90.00,180.00,0.00,OPEN,0
667689.156,0,0,0,1.000,1.000,1.000,-90.00,180.00,0.00,OPEN,0
667689.206,0,0,0,1.000,1.000,1.000,-90.00,180.00,0.00,OPEN,0
667689.256,0,0,0,1.000,1.000,1.000,-90.00,180.00,0.00,OPEN,0
667689.306,0,0,0,1.000,1.000,1.000,-90.00,180.00,0.00,OPEN,0
667689.356,0,0,0,1.000,1.000,1.000,-90.00,180.00,0.00,OPEN,0
667689.405,0,0,0,1.000,1.000,1.000,-90.00,180.00,0.00,OPEN,0
667689.456,0,0,0,1.000,1.000,1.000,-90.00,180.00,0.00,OPEN,0
667689.506,0,0,0,1.000,1.000,1.000,-90.00,180.00,0.00,OPEN,0
667689.556,0,0,0,1.000,1.000,1.000,-90.00,180.00,0.00,OPEN,0
667689.606,0,0,0,1.000,1.000,1.000,-90.00,180.00,0.00,OPEN,0
667689.657,0,0,0,1.000,1.000,1.000,-90.00,180.00,0.00,OPEN,0
667689.707,0,0,0,1.000,1.000,1.000,-90.00,180.00,0.00,OPEN,0
667689.756,0,0,0,1.000,1.000,1.000,-90.00,180.00,0.00,OPEN,0
667689.806,0,0,0,1.000,1.000,1.000,-90.00,180.00,0.00,OPEN,0
667689.856,0,0,0,0.999,1.000,1.000,-90.00,180.00,0.00,OPEN,0
667689.906,0,0,0,1.000,1.000,1.000,-90.00,180.00,0.00,OPEN,0
667689.956,0,0,0,1.000,1.000,1.000,-90.00,180.00,0.00,OPEN,0
667690.006,0,0,0,1.000,1.000,1.000,-90.00,180.00,0.00,OPEN,0
667690.056,0,0,0,1.000,1.000,1.000,-90.00,180.00,0.00,OPEN,0
667690.105,0,0,0,1.000,1.000,1.000,-90.00,180.00,0.00,OPEN,0
667690.156,0,0,0,1.000,1.000,1.000,-90.00,180.00,0.00,OPEN,0
667690.206,0,0,0,1.000,1.000,1.000,-90.00,180.00,0.00,OPEN,0
667690.269,0,0,0,1.000,1.000,1.000,-90.00,180.00,0.00,OPEN,0
667690.307,0,0,0,1.000,1.000,1.000,-90.00,180.00,0.00,OPEN,0
667690.356,0,0,0,1.000,1.000,1.000,-90.00,180.00,0.00,OPEN,0
667690.405,0,0,0,1.000,1.000,1.000,-90.00,180.00,0.00,OPEN,0
667690.456,0,0,0,1.000,1.000,1.000,-90.00,180.00,0.00,OPEN,0
667690.506,0,0,0,1.000,1.000,1.000,-90.00,180.00,0.00,OPEN,0
667690.556,0,0,0,1.000,1.000,1.000,-90.00,180.00,0.00,OPEN,0
667690.606,0,0,0,1.000,1.000,1.000,-90.00,180.00,0.00,OPEN,0
667690.656,0,0,0,1.000,1.000,1.000,-90.00,180.00,0.00,OPEN,0
667690.705,0,0,0,1.000,1.000,1.000,-90.00,180.00,0.00,OPEN,0
667690.757,0,0,0,1.000,1.000,1.000,-90.00,180.00,0.00,OPEN,0
667690.806,0,0,0,1.000,1.000,1.000,-90.00,180.00,0.00,OPEN,0
667690.856,0,0,0,1.000,1.000,1.000,-90.00,180.00,0.00,OPEN,0
667690.906,0,0,0,1.000,1.000,1.000,-90.00,180.00,0.00,OPEN,0
667690.956,0,0,0,1.000,1.000,1.000,-90.00,180.00,0.00,OPEN,0
667691.006,0,0,0,1.000,1.000,1.000,-90.00,180.00,0.00,OPEN,0
667691.056,0,0,0,1.000,1.000,1.000,-90.00,180.00,0.00,OPEN,0
667691.106,0,0,0,1.000,1.000,1.000,-90.00,180.00,0.00,OPEN,0
667691.156,0,0,0,1.000,1.000,1.000,-90.00,180.00,0.00,OPEN,0
667691.206,0,0,0,1.000,1.000,1.000,-90.00,180.00,0.00,OPEN,0
667691.256,0,0,0,1.000,1.000,1.000,-90.00,180.00,0.00,OPEN,0
667691.306,0,0,0,1.000,1.000,1.000,-90.00,180.00,0.00,OPEN,0
667691.356,0,0,0,1.000,1.000,1.000,-90.00,180.00,0.00,OPEN,0
667691.406,0,0,0,1.000,1.000,1.000,-90.00,180.00,0.00,OPEN,0
667691.456,0,0,0,1.000,1.000,1.000,-90.00,180.00,0.00,OPEN,0
667691.506,0,0,0,1.000,1.000,1.000,-90.00,180.00,0.00,OPEN,0
667691.555,0,0,0,1.000,1.000,1.000,-90.00,180.00,0.00,OPEN,0
667691.606,0,0,0,1.000,1.000,1.000,-90.00,180.00,0.00,OPEN,0
667691.656,0,0,0,1.000,1.000,1.000,-90.00,180.00,0.00,OPEN,0
667691.706,0,0,0,1.000,1.000,1.000,-90.00,180.00,0.00,OPEN,0
667691.755,0,0,0,1.000,1.000,1.000,-90.00,180.00,0.00,OPEN,0
667691.806,0,0,0,1.000,1.000,1.000,-90.00,180.00,0.00,OPEN,0
667691.855,0,0,0,1.000,1.000,1.000,-90.00,180.00,0.00,OPEN,0
667691.906,0,0,0,1.000,1.000,1.000,-90.00,180.00,0.00,OPEN,0
667691.956,0,0,0,1.000,1.000,1.000,-90.00,180.00,0.00,OPEN,0
667692.006,0,0,0,1.000,1.000,1.000,-90.00,180.00,0.00,OPEN,0
667692.056,0,0,0,1.000,1.000,1.000,-90.00,180.00,0.00,OPEN,0
667692.105,0,0,0,1.000,1.000,1.000,-90.00,180.00,0.00,OPEN,0
667692.156,0,0,0,1.000,1.000,1.000,-90.00,180.00,0.00,OPEN,0
667692.206,0,0,0,1.000,1.000,1.000,-90.00,180.00,0.00,OPEN,0
667692.256,0,0,0,1.000,1.000,1.000,-90.00,180.00,0.00,OPEN,0
667692.306,0,0,0,1.000,1.000,1.000,-90.00,180.00,0.00,OPEN,0
667692.356,0,0,0,1.000,1.000,1.000,-90.00,180.00,0.00,OPEN,0
667692.406,0,0,0,1.000,1.000,1.000,-90.00,180.00,0.00,OPEN,0
667692.455,0,0,0,1.000,1.000,1.000,-90.00,180.00,0.00,OPEN,0
667692.506,0,0,0,1.000,1.000,1.000,-90.00,180.00,0.00,OPEN,0
667692.556,0,0,0,1.000,1.000,1.000,-90.00,180.00,0.00,OPEN,0
667692.606,0,0,0,1.000,1.000,1.000,-90.00,180.00,0.00,OPEN,0
667692.656,0,0,0,1.000,1.000,1.000,-90.00,180.00,0.00,OPEN,0
667692.706,0,0,0,1.000,1.000,1.000,-90.00,180.00,0.00,OPEN,0
667692.756,0,0,0,1.000,1.000,1.000,-90.00,180.00,0.00,OPEN,0
667692.807,0,0,0,1.000,1.000,1.000,-90.00,180.00,0.00,OPEN,0
667692.856,0,0,0,1.000,1.000,1.000,-90.00,180.00,0.00,OPEN,0
667692.906,0,0,0,1.000,1.000,1.000,-90.00,180.00,0.00,OPEN,0
667692.956,0,0,0,1.000,1.000,1.000,-90.00,180.00,0.00,OPEN,0
667693.006,0,0,0,1.000,1.000,1.000,-90.00,180.00,0.00,OPEN,0
667693.056,0,0,0,1.000,1.000,1.000,-90.00,180.00,0.00,OPEN,0
667693.106,0,0,0,1.000,1.000,1.000,-90.00,180.00,0.00,OPEN,0
667693.156,0,0,0,1.000,1.000,1.000,-90.00,180.00,0.00,OPEN,0
667693.206,0,0,0,1.000,1.000,1.000,-90.00,180.00,0.00,OPEN,0
667693.256,0,0,0,1.000,1.000,1.000,-90.00,180.00,0.00,OPEN,0
667693.305,0,0,0,1.000,1.000,1.000,-90.00,180.00,0.00,OPEN,0
667693.356,0,0,0,1.000,1.000,1.000,-90.00,180.00,0.00,OPEN,0
667693.405,0,0,0,1.000,1.000,1.000,-90.00,180.00,0.00,OPEN,0
667693.456,0,0,0,1.000,1.000,1.000,-90.00,180.00,0.00,OPEN,0
667693.506,0,0,0,1.000,1.000,1.000,-90.00,180.00,0.00,OPEN,0
667693.565,0,0,0,1.000,1.000,1.000,-90.00,180.00,0.00,OPEN,0
667693.608,0,0,0,1.000,1.000,1.000,-90.00,180.00,0.00,OPEN,0
667693.656,0,0,0,1.000,1.000,1.000,-90.00,180.00,0.00,OPEN,0
667693.705,0,0,0,1.000,1.000,1.000,-90.00,180.00,0.00,OPEN,0
667693.756,0,0,0,1.000,1.000,1.000,-90.00,180.00,0.00,OPEN,0
667693.806,0,0,0,1.000,1.000,1.000,-90.00,180.00,0.00,OPEN,0
667693.856,0,0,0,1.000,1.000,1.000,-90.00,180.00,0.00,OPEN,0
667693.905,0,0,0,1.000,1.000,1.000,-90.00,180.00,0.00,OPEN,0
667693.955,0,0,0,1.000,1.000,1.000,-90.00,180.00,0.00,OPEN,0
667694.005,0,0,0,1.000,1.000,1.000,-90.00,180.00,0.00,OPEN,0
667694.056,0,0,0,1.000,1.000,1.000,-90.00,180.00,0.00,OPEN,0
667694.106,0,0,0,1.000,1.000,1.000,-90.00,180.00,0.00,OPEN,0
667694.156,0,0,0,1.000,1.000,1.000,-90.00,180.00,0.00,OPEN,0
667694.206,0,0,0,1.000,1.000,1.000,-90.00,180.00,0.00,OPEN,0
667694.256,0,0,0,1.000,1.000,1.000,-90.00,180.00,0.00,OPEN,0
667694.306,0,0,0,1.000,1.000,1.000,-90.00,180.00,0.00,OPEN,0
667694.357,0,0,0,1.000,1.000,1.000,-90.00,180.00,0.00,OPEN,0
667694.406,0,0,0,1.000,1.000,1.000,-90.00,180.00,0.00,OPEN,0
667694.455,0,0,0,1.000,1.000,1.000,-90.00,180.00,0.00,OPEN,0
667694.506,0,0,0,1.000,1.000,1.000,-90.00,180.00,0.00,OPEN,0
667694.556,0,0,0,1.000,1.000,1.000,-90.00,180.00,0.00,OPEN,0
667694.606,0,0,0,1.000,1.000,1.000,-90.00,180.00,0.00,OPEN,0
667694.656,0,0,0,1.000,1.000,1.000,-90.00,180.00,0.00,OPEN,0
667694.705,0,0,0,1.000,1.000,1.000,-90.00,180.00,0.00,OPEN,0
667694.756,0,0,0,1.000,1.000,1.000,-90.00,180.00,0.00,OPEN,0
667694.806,0,0,0,1.000,1.000,1.000,-90.00,180.00,0.00,OPEN,0
667694.856,0,0,0,1.000,1.000,1.000,-90.00,180.00,0.00,OPEN,0
667694.906,0,0,0,1.000,1.000,1.000,-90.00,180.00,0.00,OPEN,0
667694.956,0,0,0,1.000,1.000,1.000,-90.00,180.00,0.00,OPEN,0
667695.006,0,0,0,1.000,1.000,1.000,-90.00,180.00,0.00,OPEN,0
667695.056,0,0,0,1.000,1.000,1.000,-90.00,180.00,0.00,OPEN,0
667695.106,0,0,0,1.000,1.000,1.000,-90.00,180.00,0.00,OPEN,0
667695.155,0,0,0,1.000,1.000,1.000,-90.00,180.00,0.00,OPEN,0
667695.206,0,0,0,1.000,1.000,1.000,-90.00,180.00,0.00,OPEN,0
667695.256,0,0,0,1.000,1.000,1.000,-90.00,180.00,0.00,OPEN,0
667695.306,0,0,0,1.000,1.000,1.000,-90.00,180.00,0.00,OPEN,0
667695.356,0,0,0,1.000,1.000,1.000,-90.00,180.00,0.00,OPEN,0
667695.406,0,0,0,1.000,1.000,1.000,-90.00,180.00,0.00,OPEN,0
667695.455,0,0,0,1.000,1.000,1.000,-90.00,180.00,0.00,OPEN,0
667695.506,0,0,0,1.000,1.000,1.000,-90.00,180.00,0.00,OPEN,0
667695.556,0,0,0,1.000,1.000,1.000,-90.00,180.00,0.00,OPEN,0
667695.606,0,0,0,1.000,1.000,1.000,-90.00,180.00,0.00,OPEN,0
667695.656,0,0,0,0.982,1.000,1.000,-90.00,180.00,0.00,OPEN,0
667695.706,0,0,0,0.952,1.000,1.000,-90.00,180.00,0.00,OPEN,0
667695.756,0,0,0,0.999,1.000,1.000,-90.00,180.00,0.00,OPEN,0
667695.806,0,0,0,1.000,1.000,1.000,-90.00,180.00,0.00,OPEN,0
667695.856,0,0,0,1.000,1.000,1.000,-90.00,180.00,0.00,OPEN,0
667695.905,0,0,0,1.000,1.000,1.000,-90.00,180.00,0.00,OPEN,0
667695.956,0,0,0,0.999,1.000,1.000,-90.00,180.00,0.00,OPEN,0
667696.006,0,0,0,0.996,1.000,1.000,-90.00,180.00,0.00,OPEN,0
667696.056,0,0,0,0.806,1.000,1.000,-90.00,180.00,0.00,OPEN,0
667696.106,1,0,0,0.951,1.000,1.000,-90.00,180.00,0.00,OPEN,0
667696.156,1,0,0,0.993,0.999,1.000,-90.00,180.00,0.00,OPEN,0
667696.206,1,0,0,0.998,0.990,1.000,-90.00,180.00,0.00,OPEN,0
667696.256,1,0,0,0.999,0.931,1.000,-90.00,180.00,0.00,OPEN,0
667696.306,1,0,0,1.000,0.866,1.000,-90.00,180.00,0.00,OPEN,0
667696.356,1,0,0,1.000,0.816,1.000,-90.00,180.00,0.00,OPEN,0
667696.406,1,0,0,1.000,0.773,1.000,-90.00,180.00,0.00,OPEN,0
667696.456,1,0,0,1.000,0.744,1.000,-90.00,180.00,0.00,OPEN,0
667696.506,1,0,0,1.000,0.728,1.000,-90.00,180.00,0.00,OPEN,0
667696.566,1,0,0,1.000,0.690,1.000,-90.00,180.00,0.00,OPEN,0
667696.607,1,0,0,1.000,0.648,1.000,-90.00,180.00,0.00,OPEN,0
667696.656,1,0,0,1.000,0.651,1.000,-90.00,180.00,0.00,OPEN,0
667696.706,1,0,0,1.000,0.551,1.000,-90.00,180.00,0.00,OPEN,0
667696.756,3,0,0,1.000,0.662,1.000,-90.00,180.00,0.00,OPEN,0
667696.806,3,0,0,1.000,0.952,1.000,-90.00,180.00,0.00,OPEN,0
667696.856,3,0,0,1.000,0.996,1.000,-90.00,180.00,0.00,OPEN,0
667696.907,3,0,0,1.000,0.999,0.999,-90.00,180.00,0.00,OPEN,0
667696.956,3,0,0,1.000,1.000,0.965,-90.00,180.00,0.00,OPEN,0
667697.006,3,0,0,1.000,1.000,0.972,-90.00,180.00,0.00,OPEN,0
667697.056,3,0,0,1.000,1.000,0.979,-90.00,180.00,0.00,OPEN,0
667697.106,3,0,0,1.000,1.000,0.981,-90.00,180.00,0.00,OPEN,0
667697.156,3,0,0,1.000,1.000,0.981,-90.00,180.00,0.00,OPEN,0
667697.206,3,0,0,1.000,1.000,0.979,-90.00,180.00,0.00,OPEN,0
667697.256,3,0,0,1.000,1.000,0.972,-90.00,180.00,0.00,OPEN,0
667697.305,3,0,0,1.000,1.000,0.946,-90.00,180.00,0.00,OPEN,0
667697.356,3,0,0,1.000,1.000,0.910,-90.00,180.00,0.00,OPEN,0
667697.406,3,0,0,1.000,1.000,0.848,-90.00,180.00,0.00,OPEN,0
667697.455,3,0,0,1.000,1.000,0.789,-90.00,180.00,0.00,OPEN,0
667697.506,3,0,0,1.000,1.000,0.723,-90.00,180.00,0.00,OPEN,0
667697.556,3,0,0,1.000,1.000,0.663,-90.00,180.00,0.00,OPEN,0
667697.606,3,0,0,1.000,1.000,0.627,-90.00,180.00,0.00,OPEN,0
667697.656,3,1,0,1.000,0.999,0.636,-90.00,180.00,0.00,OPEN,0
667697.707,3,1,0,1.000,0.999,0.620,-90.00,180.00,0.00,OPEN,0
667697.756,3,1,0,1.000,0.998,0.647,-90.00,180.00,0.00,OPEN,0
667697.806,3,1,0,1.000,0.995,0.725,-90.00,180.00,0.00,OPEN,0
667697.856,3,1,0,1.000,0.989,0.789,-90.00,180.00,0.00,OPEN,0
667697.906,3,1,0,1.000,0.975,0.826,-90.00,180.00,0.00,OPEN,0
667697.956,3,1,0,1.000,0.961,0.817,-90.00,180.00,0.00,OPEN,0
