t,hand,elbow,shoulder,p_hand,p_elbow,p_shoulder,J2,J3,J6,grip_state,cmd_sent
653853.264,0,0,0,0.981,1.000,0.999,-90.00,180.00,0.00,OPEN,0
653853.278,0,0,0,0.997,1.000,0.999,-90.00,180.00,0.00,OPEN,0
653853.284,0,0,0,1.000,1.000,0.998,-90.00,180.00,0.00,OPEN,0
653853.288,0,0,0,1.000,1.000,0.999,-90.00,180.00,0.00,OPEN,0
653853.296,0,0,0,1.000,1.000,0.999,-90.00,180.00,0.00,OPEN,0
653853.302,0,0,0,1.000,1.000,0.999,-90.00,180.00,0.00,OPEN,0
653853.310,0,0,0,1.000,1.000,0.999,-90.00,180.00,0.00,OPEN,0
653853.317,0,0,0,1.000,1.000,0.999,-90.00,180.00,0.00,OPEN,0
653853.324,0,0,0,1.000,1.000,0.999,-90.00,180.00,0.00,OPEN,0
653853.330,0,0,0,1.000,1.000,0.999,-90.00,180.00,0.00,OPEN,0
653853.337,0,0,0,1.000,1.000,0.999,-90.00,180.00,0.00,OPEN,0
653853.343,0,0,0,1.000,1.000,0.998,-90.00,180.00,0.00,OPEN,0
653853.347,0,0,0,1.000,1.000,0.998,-90.00,180.00,0.00,OPEN,0
653853.352,0,0,0,1.000,1.000,0.998,-90.00,180.00,0.00,OPEN,0
653853.356,0,0,0,1.000,1.000,0.996,-90.00,180.00,0.00,OPEN,0
653853.361,0,0,0,1.000,1.000,0.995,-90.00,180.00,0.00,OPEN,0
653853.366,0,0,0,1.000,1.000,0.997,-90.00,180.00,0.00,OPEN,0
653853.370,0,0,0,1.000,1.000,0.996,-90.00,180.00,0.00,OPEN,0
653853.374,0,0,0,1.000,1.000,0.997,-90.00,180.00,0.00,OPEN,0
653853.379,0,0,0,1.000,1.000,0.997,-90.00,180.00,0.00,OPEN,0
653853.383,0,0,0,1.000,1.000,0.992,-90.00,180.00,0.00,OPEN,0
653853.387,0,0,0,1.000,1.000,0.988,-90.00,180.00,0.00,OPEN,0
653853.392,0,0,0,1.000,1.000,0.972,-90.00,180.00,0.00,OPEN,0
653853.396,0,0,0,1.000,1.000,0.994,-90.00,180.00,0.00,OPEN,0
653853.402,0,0,0,1.000,1.000,0.996,-90.00,180.00,0.00,OPEN,0
653853.406,0,0,0,1.000,1.000,0.993,-90.00,180.00,0.00,OPEN,0
653853.411,0,0,0,1.000,1.000,0.994,-90.00,180.00,0.00,OPEN,0
653853.416,0,0,0,1.000,1.000,0.993,-90.00,180.00,0.00,OPEN,0
653853.420,0,0,0,1.000,1.000,0.994,-90.00,180.00,0.00,OPEN,0
653853.424,0,0,0,1.000,1.000,0.985,-90.00,180.00,0.00,OPEN,0
653853.428,0,0,0,1.000,1.000,0.889,-90.00,180.00,0.00,OPEN,0
653853.433,0,0,0,1.000,1.000,0.814,-90.00,180.00,0.00,OPEN,0
653853.437,0,0,0,1.000,1.000,0.943,-90.00,180.00,0.00,OPEN,0
653853.444,0,0,0,1.000,1.000,0.984,-90.00,180.00,0.00,OPEN,0
653853.453,0,0,0,1.000,1.000,0.991,-90.00,180.00,0.00,OPEN,0
653853.467,0,0,0,1.000,1.000,0.992,-90.00,180.00,0.00,OPEN,0
653853.478,0,0,0,1.000,1.000,0.995,-90.00,180.00,0.00,OPEN,0
653853.485,0,0,0,1.000,1.000,0.996,-90.00,180.00,0.00,OPEN,0
653853.491,0,0,0,1.000,1.000,0.998,-90.00,180.00,0.00,OPEN,0
653853.498,0,0,0,1.000,1.000,0.998,-90.00,180.00,0.00,OPEN,0
653853.504,0,0,0,1.000,1.000,0.997,-90.00,180.00,0.00,OPEN,0
653853.509,0,0,0,1.000,1.000,0.994,-90.00,180.00,0.00,OPEN,0
653853.514,0,0,0,1.000,1.000,0.994,-90.00,180.00,0.00,OPEN,0
653853.518,0,0,0,1.000,1.000,0.993,-90.00,180.00,0.00,OPEN,0
653853.522,0,0,0,1.000,1.000,0.989,-90.00,180.00,0.00,OPEN,0
653853.526,0,0,0,1.000,1.000,0.981,-90.00,180.00,0.00,OPEN,0
653853.531,0,0,0,1.000,1.000,0.978,-90.00,180.00,0.00,OPEN,0
653853.535,0,0,0,1.000,1.000,0.983,-90.00,180.00,0.00,OPEN,0
653853.539,0,0,0,1.000,1.000,0.993,-90.00,180.00,0.00,OPEN,0
653853.543,0,0,0,1.000,1.000,0.992,-90.00,180.00,0.00,OPEN,0
653853.547,0,0,0,1.000,1.000,0.992,-90.00,180.00,0.00,OPEN,0
653853.551,0,0,0,1.000,1.000,0.989,-90.00,180.00,0.00,OPEN,0
653853.555,0,0,0,1.000,1.000,0.988,-90.00,180.00,0.00,OPEN,0
653853.559,0,0,0,1.000,1.000,0.957,-90.00,180.00,0.00,OPEN,0
653853.565,0,0,0,1.000,1.000,0.920,-90.00,180.00,0.00,OPEN,0
653853.569,0,0,0,1.000,1.000,0.942,-90.00,180.00,0.00,OPEN,0
653853.574,0,0,0,1.000,1.000,0.936,-90.00,180.00,0.00,OPEN,0
653853.579,0,0,0,1.000,1.000,0.935,-90.00,180.00,0.00,OPEN,0
653853.585,0,0,0,1.000,1.000,0.911,-90.00,180.00,0.00,OPEN,0
653853.590,0,0,0,1.000,1.000,0.908,-90.00,180.00,0.00,OPEN,0
653853.594,0,0,0,1.000,1.000,0.968,-90.00,180.00,0.00,OPEN,0
653853.600,0,0,0,1.000,1.000,0.969,-90.00,180.00,0.00,OPEN,0
653853.605,0,0,0,1.000,1.000,0.981,-90.00,180.00,0.00,OPEN,0
653853.610,0,0,0,1.000,1.000,0.995,-90.00,180.00,0.00,OPEN,0
653853.615,0,0,0,1.000,1.000,0.996,-90.00,180.00,0.00,OPEN,0
653853.620,0,0,0,1.000,1.000,0.996,-90.00,180.00,0.00,OPEN,0
653853.624,0,0,0,1.000,1.000,0.994,-90.00,180.00,0.00,OPEN,0
653853.628,0,0,0,1.000,1.000,0.990,-90.00,180.00,0.00,OPEN,0
653853.633,0,0,0,1.000,1.000,0.986,-90.00,180.00,0.00,OPEN,0
653853.637,0,0,0,1.000,1.000,0.987,-90.00,180.00,0.00,OPEN,0
653853.641,0,0,0,1.000,1.000,0.982,-90.00,180.00,0.00,OPEN,0
653853.645,0,0,0,1.000,1.000,0.978,-90.00,180.00,0.00,OPEN,0
653853.649,0,0,0,1.000,1.000,0.983,-90.00,180.00,0.00,OPEN,0
653853.653,0,0,0,1.000,1.000,0.988,-90.00,180.00,0.00,OPEN,0
653853.657,0,0,0,1.000,1.000,0.994,-90.00,180.00,0.00,OPEN,0
653853.661,0,0,0,1.000,1.000,0.994,-90.00,180.00,0.00,OPEN,0
653853.666,0,0,0,1.000,1.000,0.990,-90.00,180.00,0.00,OPEN,0
653853.670,0,0,0,1.000,1.000,0.991,-90.00,180.00,0.00,OPEN,0
653853.674,0,0,0,1.000,1.000,0.989,-90.00,180.00,0.00,OPEN,0
653853.678,0,0,0,1.000,1.000,0.986,-90.00,180.00,0.00,OPEN,0
653853.682,0,0,0,1.000,1.000,0.985,-90.00,180.00,0.00,OPEN,0
653853.686,0,0,0,1.000,1.000,0.981,-90.00,180.00,0.00,OPEN,0
653853.690,0,0,0,1.000,1.000,0.979,-90.00,180.00,0.00,OPEN,0
653853.695,0,0,0,1.000,1.000,0.988,-90.00,180.00,0.00,OPEN,0
653853.699,0,0,0,1.000,1.000,0.987,-90.00,180.00,0.00,OPEN,0
653853.703,0,0,0,1.000,1.000,0.987,-90.00,180.00,0.00,OPEN,0
653853.707,0,0,0,1.000,1.000,0.987,-90.00,180.00,0.00,OPEN,0
653853.711,0,0,0,1.000,1.000,0.990,-90.00,180.00,0.00,OPEN,0
653853.717,0,0,0,1.000,1.000,0.994,-90.00,180.00,0.00,OPEN,0
653853.721,0,0,0,1.000,1.000,0.989,-90.00,180.00,0.00,OPEN,0
653853.726,0,0,0,1.000,1.000,0.987,-90.00,180.00,0.00,OPEN,0
653853.730,0,0,0,1.000,1.000,0.987,-90.00,180.00,0.00,OPEN,0
653853.734,0,0,0,1.000,1.000,0.990,-90.00,180.00,0.00,OPEN,0
653853.738,0,0,0,1.000,1.000,0.981,-90.00,180.00,0.00,OPEN,0
653853.742,0,0,0,1.000,1.000,0.979,-90.00,180.00,0.00,OPEN,0
653853.746,0,0,0,1.000,1.000,0.985,-90.00,180.00,0.00,OPEN,0
653853.751,0,0,0,1.000,1.000,1.000,-90.00,180.00,0.00,OPEN,0
653853.755,0,0,0,1.000,1.000,1.000,-90.00,180.00,0.00,OPEN,0
653853.759,0,0,0,1.000,1.000,1.000,-90.00,180.00,0.00,OPEN,0
653853.765,0,0,0,1.000,1.000,1.000,-90.00,180.00,0.00,OPEN,0
653853.769,0,0,0,1.000,1.000,1.000,-90.00,180.00,0.00,OPEN,0
653853.774,0,0,0,1.000,1.000,1.000,-90.00,180.00,0.00,OPEN,0
653853.779,0,0,0,1.000,1.000,1.000,-90.00,180.00,0.00,OPEN,0
653853.785,0,1,1,1.000,1.000,1.000,0.00,90.00,0.00,OPEN,0
653853.789,0,1,1,1.000,1.000,1.000,0.00,90.00,0.00,OPEN,0
653853.794,0,1,1,1.000,1.000,1.000,0.00,90.00,0.00,OPEN,0
653853.799,0,1,1,1.000,1.000,1.000,0.00,90.00,0.00,OPEN,0
653853.803,0,1,1,1.000,1.000,1.000,0.00,90.00,0.00,OPEN,0
653853.806,0,1,1,1.000,1.000,1.000,0.00,90.00,0.00,OPEN,0
653853.811,0,1,1,1.000,1.000,1.000,0.00,90.00,0.00,OPEN,0
653853.815,0,1,1,1.000,1.000,1.000,0.00,90.00,0.00,OPEN,0
653853.819,0,1,1,1.000,1.000,1.000,0.00,90.00,0.00,OPEN,0
653853.823,0,1,1,1.000,1.000,1.000,0.00,90.00,0.00,OPEN,0
653853.827,0,1,1,1.000,1.000,1.000,0.00,90.00,0.00,OPEN,0
653853.832,0,1,1,1.000,1.000,0.924,0.00,90.00,0.00,OPEN,0
653853.838,0,1,1,1.000,1.000,0.700,0.00,90.00,0.00,OPEN,0
653853.844,0,1,1,1.000,1.000,0.790,0.00,90.00,0.00,OPEN,0
653853.851,0,1,1,1.000,1.000,1.000,0.00,90.00,0.00,OPEN,0
653853.857,0,1,1,1.000,1.000,1.000,0.00,90.00,0.00,OPEN,0
653853.862,0,1,1,1.000,1.000,1.000,0.00,90.00,0.00,OPEN,0
653853.867,0,1,1,0.773,1.000,1.000,0.00,90.00,0.00,OPEN,0
653853.872,1,1,1,1.000,1.000,1.000,0.00,90.00,0.00,OPEN,0
653853.876,1,0,1,1.000,1.000,1.000,0.00,180.00,0.00,OPEN,0
653853.880,1,0,1,1.000,1.000,1.000,0.00,180.00,0.00,OPEN,0
653853.884,1,0,0,1.000,1.000,1.000,-90.00,180.00,0.00,OPEN,0
653853.888,1,0,0,1.000,1.000,1.000,-90.00,180.00,0.00,OPEN,0
653853.892,1,0,0,1.000,1.000,1.000,-90.00,180.00,0.00,OPEN,0
653853.897,1,0,0,1.000,0.522,0.982,-90.00,180.00,0.00,OPEN,0
653853.901,0,0,0,1.000,0.998,0.732,-90.00,180.00,0.00,OPEN,0
653853.905,0,0,0,1.000,1.000,0.598,-90.00,180.00,0.00,OPEN,0
653853.909,0,0,0,1.000,1.000,0.546,-90.00,180.00,0.00,OPEN,0
653853.914,0,0,0,1.000,1.000,0.600,-90.00,180.00,0.00,OPEN,0
653853.919,0,0,0,1.000,1.000,0.996,-90.00,180.00,0.00,OPEN,0
653853.924,0,0,0,1.000,1.000,0.976,-90.00,180.00,0.00,OPEN,0
653853.928,0,0,0,1.000,1.000,0.959,-90.00,180.00,0.00,OPEN,0
653853.935,0,0,0,1.000,1.000,0.984,-90.00,180.00,0.00,OPEN,0
653853.940,0,0,0,1.000,0.992,0.988,-90.00,180.00,0.00,OPEN,0
653853.945,0,0,0,1.000,0.973,0.978,-90.00,180.00,0.00,OPEN,0
653853.950,0,0,0,1.000,0.743,0.999,-90.00,180.00,0.00,OPEN,0
653853.954,0,0,0,1.000,1.000,1.000,-90.00,180.00,0.00,OPEN,0
653853.957,0,0,0,1.000,1.000,0.995,-90.00,180.00,0.00,OPEN,0
653853.961,0,0,0,1.000,0.810,0.803,-90.00,180.00,0.00,OPEN,0
653853.966,0,0,0,1.000,0.977,0.574,-90.00,180.00,0.00,OPEN,0
653853.969,0,0,0,1.000,0.949,0.637,-90.00,180.00,0.00,OPEN,0
653853.973,0,0,0,1.000,0.778,0.794,-90.00,180.00,0.00,OPEN,0
653853.978,0,0,0,1.000,0.995,0.992,-90.00,180.00,0.00,OPEN,0
653853.982,0,0,0,1.000,1.000,1.000,-90.00,180.00,0.00,OPEN,0
653853.986,0,0,0,1.000,1.000,1.000,-90.00,180.00,0.00,OPEN,0
653853.990,0,0,0,1.000,1.000,1.000,-90.00,180.00,0.00,OPEN,0
653853.994,0,0,0,1.000,1.000,1.000,-90.00,180.00,0.00,OPEN,0
653853.999,0,0,0,1.000,1.000,1.000,-90.00,180.00,0.00,OPEN,0
653854.003,0,0,0,1.000,1.000,1.000,-90.00,180.00,0.00,OPEN,0
653854.007,0,0,0,1.000,1.000,1.000,-90.00,180.00,0.00,OPEN,0
653854.012,0,0,0,1.000,1.000,0.956,-90.00,180.00,0.00,OPEN,0
653854.016,0,0,0,1.000,1.000,0.562,-90.00,180.00,0.00,OPEN,0
653854.020,0,0,0,1.000,1.000,1.000,-90.00,180.00,0.00,OPEN,0
653854.024,0,0,0,1.000,1.000,1.000,-90.00,180.00,0.00,OPEN,0
653854.029,0,0,0,1.000,1.000,1.000,-90.00,180.00,0.00,OPEN,0
653854.034,0,0,0,1.000,1.000,1.000,-90.00,180.00,0.00,OPEN,0
653854.038,0,0,0,1.000,1.000,1.000,-90.00,180.00,0.00,OPEN,0
653854.042,0,0,0,1.000,1.000,1.000,-90.00,180.00,0.00,OPEN,0
653854.047,0,0,0,1.000,1.000,1.000,-90.00,180.00,0.00,OPEN,0
653854.051,0,0,0,1.000,1.000,1.000,-90.00,180.00,0.00,OPEN,0
653854.055,0,0,0,1.000,1.000,1.000,-90.00,180.00,0.00,OPEN,0
653854.059,0,0,0,1.000,1.000,1.000,-90.00,180.00,0.00,OPEN,0
653854.065,0,0,0,1.000,1.000,1.000,-90.00,180.00,0.00,OPEN,0
653854.071,0,0,0,1.000,1.000,1.000,-90.00,180.00,0.00,OPEN,0
653854.076,0,0,0,1.000,1.000,1.000,-90.00,180.00,0.00,OPEN,0
653854.079,0,0,0,1.000,1.000,1.000,-90.00,180.00,0.00,OPEN,0
653854.084,0,0,0,1.000,1.000,1.000,-90.00,180.00,0.00,OPEN,0
653854.089,0,0,0,1.000,1.000,1.000,-90.00,180.00,0.00,OPEN,0
653854.093,0,0,0,1.000,1.000,1.000,-90.00,180.00,0.00,OPEN,0
653854.098,0,0,0,1.000,0.999,1.000,-90.00,180.00,0.00,OPEN,0
653854.103,0,0,0,1.000,0.847,0.986,-90.00,180.00,0.00,OPEN,0
653854.107,0,0,0,1.000,1.000,0.759,-90.00,180.00,0.00,OPEN,0
653854.112,0,0,0,1.000,1.000,0.965,-90.00,180.00,0.00,OPEN,0
653854.117,0,0,0,1.000,1.000,0.994,-90.00,180.00,0.00,OPEN,0
653854.121,0,0,0,1.000,1.000,0.994,-90.00,180.00,0.00,OPEN,0
653854.125,0,0,0,1.000,1.000,0.993,-90.00,180.00,0.00,OPEN,0
653854.129,0,0,0,1.000,1.000,0.991,-90.00,180.00,0.00,OPEN,0
653854.134,0,0,0,1.000,1.000,0.987,-90.00,180.00,0.00,OPEN,0
653854.139,0,0,0,1.000,1.000,0.991,-90.00,180.00,0.00,OPEN,0
653854.144,0,0,0,1.000,1.000,0.995,-90.00,180.00,0.00,OPEN,0
653854.149,0,0,0,1.000,1.000,0.993,-90.00,180.00,0.00,OPEN,0
653854.153,0,0,0,1.000,1.000,0.985,-90.00,180.00,0.00,OPEN,0
653854.157,0,0,0,1.000,1.000,0.981,-90.00,180.00,0.00,OPEN,0
653854.161,0,0,0,1.000,1.000,0.991,-90.00,180.00,0.00,OPEN,0
653854.166,0,0,0,1.000,1.000,0.989,-90.00,180.00,0.00,OPEN,0
653854.170,0,0,0,1.000,1.000,0.980,-90.00,180.00,0.00,OPEN,0
653854.174,0,0,0,1.000,1.000,0.959,-90.00,180.00,0.00,OPEN,0
653854.178,0,0,0,1.000,1.000,0.587,-90.00,180.00,0.00,OPEN,0
653854.184,0,0,0,1.000,1.000,0.505,-90.00,180.00,0.00,OPEN,0
653854.188,0,0,0,1.000,1.000,0.514,-90.00,180.00,0.00,OPEN,0
653854.193,0,0,0,1.000,1.000,0.504,-90.00,180.00,0.00,OPEN,0
653854.198,0,0,0,1.000,1.000,0.527,-90.00,180.00,0.00,OPEN,0
653854.203,0,0,0,1.000,1.000,0.761,-90.00,180.00,0.00,OPEN,0
653854.207,0,0,0,1.000,1.000,0.892,-90.00,180.00,0.00,OPEN,0
653854.212,0,0,0,1.000,1.000,0.929,-90.00,180.00,0.00,OPEN,0
653854.217,0,0,0,1.000,1.000,0.940,-90.00,180.00,0.00,OPEN,0
653854.221,0,0,0,1.000,1.000,0.913,-90.00,180.00,0.00,OPEN,0
653854.225,0,0,0,1.000,1.000,0.912,-90.00,180.00,0.00,OPEN,0
653854.230,0,0,0,1.000,1.000,0.848,-90.00,180.00,0.00,OPEN,0
653854.234,0,0,0,1.000,1.000,0.874,-90.00,180.00,0.00,OPEN,0
653854.238,0,0,0,1.000,1.000,0.876,-90.00,180.00,0.00,OPEN,0
653854.241,0,0,0,1.000,1.000,0.909,-90.00,180.00,0.00,OPEN,0
653854.245,0,0,0,1.000,1.000,0.925,-90.00,180.00,0.00,OPEN,0
653854.250,0,0,0,1.000,1.000,0.970,-90.00,180.00,0.00,OPEN,0
653854.254,0,0,0,1.000,1.000,0.980,-90.00,180.00,0.00,OPEN,0
653854.258,0,0,0,1.000,1.000,0.982,-90.00,180.00,0.00,OPEN,0
653854.264,0,0,0,1.000,1.000,0.990,-90.00,180.00,0.00,OPEN,0
653854.268,0,0,0,1.000,1.000,0.993,-90.00,180.00,0.00,OPEN,0
653854.272,0,0,0,1.000,1.000,0.991,-90.00,180.00,0.00,OPEN,0
653854.276,0,0,0,1.000,1.000,0.993,-90.00,180.00,0.00,OPEN,0
653854.280,0,0,0,1.000,1.000,0.995,-90.00,180.00,0.00,OPEN,0
653854.285,0,0,1,1.000,1.000,0.995,0.00,180.00,0.00,OPEN,0
653854.289,0,0,1,1.000,1.000,0.996,0.00,180.00,0.00,OPEN,0
653854.294,0,0,1,1.000,1.000,0.997,0.00,180.00,0.00,OPEN,0
653854.299,0,0,1,1.000,1.000,0.988,0.00,180.00,0.00,OPEN,0
653854.303,0,0,1,1.000,1.000,0.949,0.00,180.00,0.00,OPEN,0
653854.306,0,0,1,1.000,1.000,0.769,0.00,180.00,0.00,OPEN,0
653854.311,0,0,1,1.000,1.000,0.682,0.00,180.00,0.00,OPEN,0
653854.316,0,0,1,1.000,1.000,0.598,0.00,180.00,0.00,OPEN,0
653854.321,0,0,1,1.000,1.000,0.619,0.00,180.00,0.00,OPEN,0
653854.326,0,0,1,1.000,1.000,0.518,0.00,180.00,0.00,OPEN,0
653854.331,0,0,1,1.000,1.000,0.527,0.00,180.00,0.00,OPEN,0
653854.335,0,0,1,1.000,1.000,0.560,0.00,180.00,0.00,OPEN,0
653854.339,0,0,1,1.000,1.000,0.534,0.00,180.00,0.00,OPEN,0
653854.343,0,0,1,1.000,1.000,0.687,0.00,180.00,0.00,OPEN,0
653854.348,0,0,1,1.000,1.000,0.702,0.00,180.00,0.00,OPEN,0
653854.351,0,0,1,1.000,1.000,0.818,0.00,180.00,0.00,OPEN,0
653854.355,0,0,1,1.000,1.000,0.739,0.00,180.00,0.00,OPEN,0
653854.359,0,0,1,1.000,1.000,0.771,0.00,180.00,0.00,OPEN,0
653854.364,0,0,1,1.000,1.000,0.750,0.00,180.00,0.00,OPEN,0
653854.367,0,0,1,1.000,1.000,0.721,0.00,180.00,0.00,OPEN,0
653854.371,0,0,1,1.000,1.000,0.617,0.00,180.00,0.00,OPEN,0
653854.375,0,0,1,1.000,1.000,0.580,0.00,180.00,0.00,OPEN,0
653854.380,0,0,1,1.000,1.000,0.666,0.00,180.00,0.00,OPEN,0
653854.383,0,0,1,1.000,1.000,0.615,0.00,180.00,0.00,OPEN,0
653854.388,0,0,1,1.000,1.000,0.527,0.00,180.00,0.00,OPEN,0
653854.393,0,0,1,1.000,1.000,0.607,0.00,180.00,0.00,OPEN,0
653854.401,0,0,1,1.000,1.000,0.608,0.00,180.00,0.00,OPEN,0
653854.406,0,0,1,1.000,1.000,0.708,0.00,180.00,0.00,OPEN,0
653854.412,0,0,1,1.000,1.000,0.855,0.00,180.00,0.00,OPEN,0
653854.418,0,0,1,1.000,1.000,0.816,0.00,180.00,0.00,OPEN,0
653854.422,0,0,1,1.000,1.000,0.858,0.00,180.00,0.00,OPEN,0
653854.427,0,0,1,1.000,1.000,0.850,0.00,180.00,0.00,OPEN,0
653854.432,0,0,1,1.000,1.000,0.653,0.00,180.00,0.00,OPEN,0
653854.435,0,0,1,1.000,1.000,0.612,0.00,180.00,0.00,OPEN,0
653854.439,0,0,1,1.000,1.000,0.638,0.00,180.00,0.00,OPEN,0
653854.444,0,0,1,1.000,1.000,0.707,0.00,180.00,0.00,OPEN,0
653854.448,0,0,1,1.000,1.000,0.766,0.00,180.00,0.00,OPEN,0
653854.452,0,0,1,1.000,1.000,0.682,0.00,180.00,0.00,OPEN,0
653854.456,0,0,1,1.000,1.000,0.505,0.00,180.00,0.00,OPEN,0
653854.462,0,0,1,1.000,1.000,0.640,0.00,180.00,0.00,OPEN,0
653854.467,0,0,1,1.000,1.000,0.733,0.00,180.00,0.00,OPEN,0
653854.471,0,0,1,1.000,1.000,1.000,0.00,180.00,0.00,OPEN,0
653854.477,0,0,1,1.000,1.000,1.000,0.00,180.00,0.00,OPEN,0
653854.482,0,0,1,1.000,1.000,1.000,0.00,180.00,0.00,OPEN,0
653854.486,0,0,1,1.000,1.000,1.000,0.00,180.00,0.00,OPEN,0
653854.489,0,0,1,1.000,1.000,1.000,0.00,180.00,0.00,OPEN,0
653854.493,0,0,0,1.000,1.000,1.000,-90.00,180.00,0.00,OPEN,0
653854.498,0,0,0,1.000,1.000,1.000,-90.00,180.00,0.00,OPEN,0
653854.502,0,0,0,1.000,1.000,1.000,-90.00,180.00,0.00,OPEN,0
653854.506,0,0,0,1.000,1.000,1.000,-90.00,180.00,0.00,OPEN,0
653854.510,0,0,0,1.000,1.000,1.000,-90.00,180.00,0.00,OPEN,0
653854.515,0,0,0,0.984,1.000,1.000,-90.00,180.00,0.00,OPEN,0
653854.518,0,0,0,0.985,1.000,1.000,-90.00,180.00,0.00,OPEN,0
653854.522,0,0,0,0.968,1.000,1.000,-90.00,180.00,0.00,OPEN,0
653854.526,0,0,0,0.966,1.000,1.000,-90.00,180.00,0.00,OPEN,0
653854.531,0,0,0,0.962,1.000,1.000,-90.00,180.00,0.00,OPEN,0
653854.534,0,0,0,0.957,1.000,1.000,-90.00,180.00,0.00,OPEN,0
653854.539,0,0,0,0.937,1.000,1.000,-90.00,180.00,0.00,OPEN,0
653854.543,0,1,0,0.984,1.000,1.000,-90.00,90.00,0.00,OPEN,0
653854.548,0,1,0,0.999,1.000,1.000,-90.00,90.00,0.00,OPEN,0
653854.551,0,1,0,1.000,1.000,1.000,-90.00,90.00,0.00,OPEN,0
653854.555,0,1,0,1.000,0.985,0.999,-90.00,90.00,0.00,OPEN,0
653854.560,0,1,0,1.000,1.000,1.000,-90.00,90.00,0.00,OPEN,0
653854.565,0,1,0,1.000,1.000,1.000,-90.00,90.00,0.00,OPEN,0
653854.569,0,1,0,1.000,0.997,1.000,-90.00,90.00,0.00,OPEN,0
653854.576,2,1,0,1.000,1.000,1.000,-90.00,90.00,0.00,OPEN,0
653854.582,2,1,0,1.000,1.000,1.000,-90.00,90.00,0.00,OPEN,0
653854.588,2,1,0,1.000,1.000,1.000,-90.00,90.00,0.00,OPEN,0
653854.594,2,1,0,1.000,1.000,1.000,-90.00,90.00,0.00,OPEN,0
653854.600,2,1,0,1.000,0.996,0.988,-90.00,90.00,0.00,OPEN,0
653854.604,2,1,0,1.000,0.999,0.980,-90.00,90.00,0.00,OPEN,0
653854.609,2,1,0,1.000,0.999,0.977,-90.00,90.00,0.00,OPEN,0
653854.613,2,1,0,1.000,0.998,0.962,-90.00,90.00,0.00,OPEN,0
653854.618,2,1,0,1.000,0.958,0.800,-90.00,90.00,0.00,OPEN,0
653854.622,2,1,0,1.000,1.000,0.998,-90.00,90.00,0.00,OPEN,0
653854.626,2,1,0,1.000,1.000,1.000,-90.00,90.00,0.00,OPEN,0
653854.630,2,1,0,1.000,1.000,1.000,-90.00,90.00,0.00,OPEN,0
653854.636,2,1,0,1.000,1.000,1.000,-90.00,90.00,0.00,OPEN,0
653854.640,2,1,0,1.000,1.000,1.000,-90.00,90.00,0.00,OPEN,0
653854.644,2,1,0,1.000,1.000,1.000,-90.00,90.00,0.00,OPEN,0
653854.649,2,1,0,1.000,1.000,1.000,-90.00,90.00,0.00,OPEN,0
653854.653,2,0,0,1.000,1.000,1.000,-90.00,180.00,0.00,OPEN,0
653854.657,2,0,0,1.000,1.000,1.000,-90.00,180.00,0.00,OPEN,0
653854.662,2,0,0,1.000,1.000,1.000,-90.00,180.00,0.00,OPEN,0
653854.666,2,0,0,1.000,1.000,1.000,-90.00,180.00,0.00,OPEN,0
653854.670,2,0,0,1.000,1.000,1.000,-90.00,180.00,0.00,OPEN,0
653854.674,2,0,0,1.000,1.000,1.000,-90.00,180.00,0.00,OPEN,0
653854.678,2,0,0,1.000,1.000,1.000,-90.00,180.00,0.00,OPEN,0
653854.683,2,0,0,1.000,1.000,1.000,-90.00,180.00,0.00,OPEN,0
653854.687,2,0,0,1.000,1.000,1.000,-90.00,180.00,0.00,OPEN,0
653854.694,2,0,0,1.000,1.000,1.000,-90.00,180.00,0.00,OPEN,0
653854.700,2,0,0,1.000,1.000,1.000,-90.00,180.00,0.00,OPEN,0
653854.705,2,0,0,1.000,1.000,1.000,-90.00,180.00,0.00,OPEN,0
653854.711,2,0,0,1.000,1.000,1.000,-90.00,180.00,0.00,OPEN,0
653854.716,2,0,0,1.000,1.000,1.000,-90.00,180.00,0.00,OPEN,0
653854.721,2,0,0,1.000,1.000,1.000,-90.00,180.00,0.00,OPEN,0
653854.725,2,0,0,1.000,1.000,1.000,-90.00,180.00,0.00,OPEN,0
653854.730,2,0,0,1.000,1.000,1.000,-90.00,180.00,0.00,OPEN,0
653854.734,2,0,0,1.000,1.000,1.000,-90.00,180.00,0.00,OPEN,0
653854.738,2,0,0,1.000,1.000,1.000,-90.00,180.00,0.00,OPEN,0
653854.762,2,0,0,1.000,1.000,1.000,-90.00,180.00,0.00,OPEN,0
653854.812,2,0,0,1.000,1.000,1.000,-90.00,180.00,0.00,OPEN,0
653854.862,2,0,0,1.000,1.000,1.000,-90.00,180.00,0.00,OPEN,0
653854.912,2,0,0,1.000,1.000,1.000,-90.00,180.00,0.00,OPEN,0
653854.962,2,0,0,1.000,1.000,1.000,-90.00,180.00,0.00,OPEN,0
653855.012,2,0,0,1.000,1.000,1.000,-90.00,180.00,0.00,OPEN,0
653855.063,2,0,0,1.000,1.000,1.000,-90.00,180.00,0.00,OPEN,0
653855.112,2,0,0,1.000,1.000,1.000,-90.00,180.00,0.00,OPEN,0
653855.163,2,0,0,1.000,1.000,1.000,-90.00,180.00,0.00,OPEN,0
653855.213,2,0,0,1.000,1.000,1.000,-90.00,180.00,0.00,OPEN,0
653855.263,2,0,0,1.000,1.000,1.000,-90.00,180.00,0.00,OPEN,0
653855.312,2,0,0,1.000,1.000,1.000,-90.00,180.00,0.00,OPEN,0
653855.363,2,0,0,1.000,1.000,1.000,-90.00,180.00,0.00,OPEN,0
653855.413,2,0,0,1.000,1.000,1.000,-90.00,180.00,0.00,OPEN,0
653855.463,2,0,0,1.000,1.000,1.000,-90.00,180.00,0.00,OPEN,0
653855.513,2,0,0,1.000,1.000,1.000,-90.00,180.00,0.00,OPEN,0
653855.562,2,0,0,1.000,1.000,1.000,-90.00,180.00,0.00,OPEN,0
653855.612,2,0,0,1.000,1.000,1.000,-90.00,180.00,0.00,OPEN,0
653855.662,2,0,0,1.000,1.000,1.000,-90.00,180.00,0.00,OPEN,0
653855.712,2,0,0,1.000,1.000,1.000,-90.00,180.00,0.00,OPEN,0
653855.763,2,0,0,1.000,1.000,1.000,-90.00,180.00,0.00,OPEN,0
653855.813,2,0,0,1.000,1.000,1.000,-90.00,180.00,0.00,OPEN,0
653857.902,2,0,0,1.000,1.000,1.000,-90.00,180.00,0.00,OPEN,0
653857.906,2,0,0,1.000,1.000,1.000,-90.00,180.00,0.00,OPEN,0
653857.911,2,0,0,1.000,1.000,1.000,-90.00,180.00,0.00,OPEN,0
653857.915,2,0,0,1.000,1.000,1.000,-90.00,180.00,0.00,OPEN,0
653857.919,2,0,0,1.000,1.000,1.000,-90.00,180.00,0.00,OPEN,0
653857.923,2,0,0,1.000,1.000,1.000,-90.00,180.00,0.00,OPEN,0
653857.928,2,0,0,1.000,1.000,1.000,-90.00,180.00,0.00,OPEN,0
653857.932,2,0,0,1.000,1.000,1.000,-90.00,180.00,0.00,OPEN,0
653857.936,2,0,0,1.000,1.000,1.000,-90.00,180.00,0.00,OPEN,0
653857.940,2,0,0,1.000,1.000,1.000,-90.00,180.00,0.00,OPEN,0
653857.946,2,0,0,1.000,1.000,1.000,-90.00,180.00,0.00,OPEN,0
653857.950,2,0,0,1.000,1.000,1.000,-90.00,180.00,0.00,OPEN,0
653857.954,2,0,0,1.000,1.000,1.000,-90.00,180.00,0.00,OPEN,0
653857.957,2,0,0,1.000,1.000,1.000,-90.00,180.00,0.00,OPEN,0
653857.962,2,0,0,1.000,1.000,1.000,-90.00,180.00,0.00,OPEN,0
653857.966,2,0,0,1.000,1.000,1.000,-90.00,180.00,0.00,OPEN,0
653857.970,2,0,0,1.000,1.000,1.000,-90.00,180.00,0.00,OPEN,0
653857.974,2,0,0,1.000,1.000,1.000,-90.00,180.00,0.00,OPEN,0
653857.978,2,0,0,1.000,1.000,1.000,-90.00,180.00,0.00,OPEN,0
653857.983,2,0,0,1.000,1.000,1.000,-90.00,180.00,0.00,OPEN,0
653857.986,2,0,0,1.000,1.000,1.000,-90.00,180.00,0.00,OPEN,0
653857.990,2,0,0,1.000,1.000,1.000,-90.00,180.00,0.00,OPEN,0
653857.995,2,0,0,1.000,1.000,1.000,-90.00,180.00,0.00,OPEN,0
653857.999,2,0,0,1.000,1.000,1.000,-90.00,180.00,-4.50,OPEN,1
653858.005,2,0,0,1.000,1.000,1.000,-90.00,180.00,-4.50,OPEN,0
653858.010,2,0,0,1.000,1.000,1.000,-90.00,180.00,-4.50,OPEN,0
653858.015,2,0,0,1.000,1.000,1.000,-90.00,180.00,-4.50,OPEN,0
653858.019,2,0,0,1.000,1.000,1.000,-90.00,180.00,-4.50,OPEN,0
653858.023,2,0,0,1.000,1.000,1.000,-90.00,180.00,-4.50,OPEN,0
653858.028,2,0,0,1.000,1.000,1.000,-90.00,180.00,-4.50,OPEN,0
653858.031,2,0,0,1.000,1.000,1.000,-90.00,180.00,-4.50,OPEN,0
653858.035,2,0,0,1.000,1.000,1.000,-90.00,180.00,-4.50,OPEN,0
653858.038,2,0,0,1.000,1.000,1.000,-90.00,180.00,-4.50,OPEN,0
653858.042,2,0,0,1.000,1.000,1.000,-90.00,180.00,-4.50,OPEN,0
653858.047,2,0,0,1.000,1.000,1.000,-90.00,180.00,-4.50,OPEN,0
653858.051,2,0,0,1.000,1.000,1.000,-90.00,180.00,-4.50,OPEN,0
653858.054,2,0,0,1.000,1.000,1.000,-90.00,180.00,-4.50,OPEN,0
653858.058,2,0,0,1.000,1.000,1.000,-90.00,180.00,-4.50,OPEN,0
653858.063,2,0,0,1.000,1.000,1.000,-90.00,180.00,-4.50,OPEN,0
653858.067,2,0,0,1.000,1.000,1.000,-90.00,180.00,-4.50,OPEN,0
653858.071,2,0,0,1.000,1.000,1.000,-90.00,180.00,-4.50,OPEN,0
653858.076,2,0,0,1.000,1.000,1.000,-90.00,180.00,-4.50,OPEN,0
653858.081,2,0,0,1.000,1.000,1.000,-90.00,180.00,-4.50,OPEN,0
653858.085,2,0,0,1.000,1.000,1.000,-90.00,180.00,-4.50,OPEN,0
653858.088,2,0,0,1.000,1.000,1.000,-90.00,180.00,-4.50,OPEN,0
653858.114,2,0,0,1.000,1.000,1.000,-90.00,180.00,-9.00,OPEN,1
653858.162,2,0,0,1.000,1.000,1.000,-90.00,180.00,-9.00,OPEN,0
653858.212,2,0,0,1.000,1.000,1.000,-90.00,180.00,-9.00,OPEN,0
653858.263,2,0,0,1.000,1.000,1.000,-90.00,180.00,-13.50,OPEN,1
653858.313,2,0,0,1.000,1.000,1.000,-90.00,180.00,-13.50,OPEN,0
653858.362,2,0,0,1.000,1.000,1.000,-90.00,180.00,-13.50,OPEN,0
653858.412,2,0,0,1.000,1.000,1.000,-90.00,180.00,-18.00,OPEN,1
653858.462,2,0,0,1.000,1.000,1.000,-90.00,180.00,-18.00,OPEN,0
653858.512,2,0,0,1.000,1.000,1.000,-90.00,180.00,-18.00,OPEN,0
653858.562,2,0,0,0.999,1.000,1.000,-90.00,180.00,-22.50,OPEN,1
653858.613,2,0,0,0.998,1.000,1.000,-90.00,180.00,-22.50,OPEN,0
653858.664,2,0,0,0.994,1.000,1.000,-90.00,180.00,-27.00,OPEN,1
653858.712,2,0,0,0.963,1.000,1.000,-90.00,180.00,-27.00,OPEN,0
653858.762,2,0,0,0.904,1.000,1.000,-90.00,180.00,-27.00,OPEN,0
653858.813,2,0,0,0.723,1.000,1.000,-90.00,180.00,-31.50,OPEN,1
653858.862,2,0,0,0.684,1.000,1.000,-90.00,180.00,-31.50,OPEN,0
653858.913,2,0,0,0.927,1.000,1.000,-90.00,180.00,-36.00,OPEN,1
653858.962,2,0,0,0.966,1.000,1.000,-90.00,180.00,-36.00,OPEN,0
653859.012,2,0,0,0.999,1.000,1.000,-90.00,180.00,-36.00,OPEN,0
653859.062,2,0,0,1.000,1.000,1.000,-90.00,180.00,-40.50,OPEN,1
653859.112,2,0,0,1.000,1.000,1.000,-90.00,180.00,-40.50,OPEN,0
653859.162,2,0,0,1.000,1.000,1.000,-90.00,180.00,-45.00,OPEN,1
653859.212,2,0,0,1.000,1.000,1.000,-90.00,180.00,-45.00,OPEN,0
653859.262,0,0,0,1.000,1.000,1.000,-90.00,180.00,-45.00,OPEN,0
653859.312,0,0,0,1.000,1.000,1.000,-90.00,180.00,-45.00,OPEN,0
653859.362,0,0,0,1.000,1.000,1.000,-90.00,180.00,-45.00,OPEN,0
653859.412,0,0,0,1.000,1.000,1.000,-90.00,180.00,-45.00,OPEN,0
653859.462,0,0,0,1.000,1.000,1.000,-90.00,180.00,-45.00,OPEN,0
653859.513,0,0,0,1.000,1.000,1.000,-90.00,180.00,-45.00,OPEN,0
653859.562,0,0,0,1.000,1.000,1.000,-90.00,180.00,-45.00,OPEN,0
653859.612,0,0,0,1.000,1.000,1.000,-90.00,180.00,-45.00,OPEN,0
653859.662,0,0,0,1.000,1.000,1.000,-90.00,180.00,-45.00,OPEN,0
653859.712,0,0,0,1.000,1.000,1.000,-90.00,180.00,-45.00,OPEN,0
653859.762,0,0,0,1.000,1.000,1.000,-90.00,180.00,-45.00,OPEN,0
653859.813,0,0,0,1.000,1.000,1.000,-90.00,180.00,-45.00,OPEN,0
653859.862,0,0,0,1.000,1.000,1.000,-90.00,180.00,-45.00,OPEN,0
653859.912,0,0,0,1.000,1.000,1.000,-90.00,180.00,-45.00,OPEN,0
653859.962,0,0,0,1.000,1.000,1.000,-90.00,180.00,-45.00,OPEN,0
653860.012,0,0,0,1.000,1.000,1.000,-90.00,180.00,-45.00,OPEN,0
653860.063,0,0,0,1.000,1.000,1.000,-90.00,180.00,-45.00,OPEN,0
653860.113,0,0,0,1.000,1.000,1.000,-90.00,180.00,-45.00,OPEN,0
653860.162,0,0,0,1.000,1.000,1.000,-90.00,180.00,-45.00,OPEN,0
653860.212,0,0,0,1.000,1.000,1.000,-90.00,180.00,-45.00,OPEN,0
653860.262,0,0,0,1.000,1.000,1.000,-90.00,180.00,-45.00,OPEN,0
653860.312,0,0,0,1.000,1.000,1.000,-90.00,180.00,-45.00,OPEN,0
653860.362,0,0,0,1.000,1.000,1.000,-90.00,180.00,-45.00,OPEN,0
653860.412,0,0,0,1.000,1.000,1.000,-90.00,180.00,-45.00,OPEN,0
653860.463,0,0,0,1.000,1.000,1.000,-90.00,180.00,-45.00,OPEN,0
653860.513,0,0,0,1.000,1.000,1.000,-90.00,180.00,-45.00,OPEN,0
653860.562,0,0,0,1.000,1.000,1.000,-90.00,180.00,-45.00,OPEN,0
653860.612,0,0,0,1.000,1.000,1.000,-90.00,180.00,-45.00,OPEN,0
653860.662,0,0,0,1.000,1.000,1.000,-90.00,180.00,-45.00,OPEN,0
653860.712,0,0,0,1.000,1.000,1.000,-90.00,180.00,-45.00,OPEN,0
653860.762,0,0,0,1.000,1.000,1.000,-90.00,180.00,-45.00,OPEN,0
653860.813,0,0,0,1.000,1.000,1.000,-90.00,180.00,-45.00,OPEN,0
653860.862,0,0,0,1.000,1.000,1.000,-90.00,180.00,-45.00,OPEN,0
653860.913,0,0,0,1.000,1.000,1.000,-90.00,180.00,-45.00,OPEN,0
653860.962,0,0,0,1.000,1.000,1.000,-90.00,180.00,-45.00,OPEN,0
653861.012,0,0,0,1.000,1.000,1.000,-90.00,180.00,-45.00,OPEN,0
653861.062,0,0,0,1.000,1.000,1.000,-90.00,180.00,-45.00,OPEN,0
653861.112,0,0,0,1.000,1.000,1.000,-90.00,180.00,-45.00,OPEN,0
653861.163,0,0,0,1.000,1.000,1.000,-90.00,180.00,-45.00,OPEN,0
653861.212,0,0,0,1.000,1.000,1.000,-90.00,180.00,-45.00,OPEN,0
653861.263,0,0,0,1.000,1.000,1.000,-90.00,180.00,-45.00,OPEN,0
653861.313,0,0,0,1.000,1.000,1.000,-90.00,180.00,-45.00,OPEN,0
653861.363,0,0,0,1.000,1.000,1.000,-90.00,180.00,-45.00,OPEN,0
653861.412,0,0,0,1.000,1.000,1.000,-90.00,180.00,-45.00,OPEN,0
653861.462,0,0,0,1.000,1.000,1.000,-90.00,180.00,-45.00,OPEN,0
653861.513,0,0,0,1.000,1.000,1.000,-90.00,180.00,-45.00,OPEN,0
653861.563,0,0,0,1.000,1.000,1.000,-90.00,180.00,-45.00,OPEN,0
653861.612,0,0,0,1.000,1.000,1.000,-90.00,180.00,-45.00,OPEN,0
653861.663,0,0,0,1.000,1.000,1.000,-90.00,180.00,-45.00,OPEN,0
653861.712,0,0,0,1.000,1.000,1.000,-90.00,180.00,-45.00,OPEN,0
653861.762,0,0,0,1.000,1.000,1.000,-90.00,180.00,-45.00,OPEN,0
653861.812,0,0,0,1.000,1.000,1.000,-90.00,180.00,-45.00,OPEN,0
653861.862,0,0,0,1.000,1.000,1.000,-90.00,180.00,-45.00,OPEN,0
653861.913,0,0,0,1.000,1.000,1.000,-90.00,180.00,-45.00,OPEN,0
653861.962,0,0,0,1.000,1.000,1.000,-90.00,180.00,-45.00,OPEN,0
653862.012,0,0,0,1.000,1.000,1.000,-90.00,180.00,-45.00,OPEN,0
653862.062,0,0,0,1.000,1.000,1.000,-90.00,180.00,-45.00,OPEN,0
653862.113,0,0,0,1.000,1.000,1.000,-90.00,180.00,-45.00,OPEN,0
653862.162,0,0,0,1.000,1.000,1.000,-90.00,180.00,-45.00,OPEN,0
653862.216,0,0,0,1.000,1.000,1.000,-90.00,180.00,-45.00,OPEN,0
653862.263,0,0,0,1.000,1.000,1.000,-90.00,180.00,-45.00,OPEN,0
653862.313,0,0,0,1.000,1.000,1.000,-90.00,180.00,-45.00,OPEN,0
653862.362,0,0,0,1.000,1.000,1.000,-90.00,180.00,-45.00,OPEN,0
653862.413,0,0,0,1.000,1.000,1.000,-90.00,180.00,-45.00,OPEN,0
653862.462,0,0,0,1.000,1.000,1.000,-90.00,180.00,-45.00,OPEN,0
653862.512,0,0,0,1.000,1.000,1.000,-90.00,180.00,-45.00,OPEN,0
653862.563,0,0,0,1.000,1.000,1.000,-90.00,180.00,-45.00,OPEN,0
653862.613,0,0,0,1.000,1.000,1.000,-90.00,180.00,-45.00,OPEN,0
653862.664,0,0,0,1.000,1.000,1.000,-90.00,180.00,-45.00,OPEN,0
653862.712,0,0,0,1.000,1.000,1.000,-90.00,180.00,-45.00,OPEN,0
653862.763,0,0,0,1.000,1.000,1.000,-90.00,180.00,-45.00,OPEN,0
653862.812,0,0,0,1.000,1.000,1.000,-90.00,180.00,-45.00,OPEN,0
653862.862,0,0,0,1.000,1.000,1.000,-90.00,180.00,-45.00,OPEN,0
653862.912,0,0,0,1.000,1.000,1.000,-90.00,180.00,-45.00,OPEN,0
653862.962,0,0,0,1.000,1.000,1.000,-90.00,180.00,-45.00,OPEN,0
653863.013,0,0,0,1.000,1.000,1.000,-90.00,180.00,-45.00,OPEN,0
653863.063,0,0,0,1.000,1.000,1.000,-90.00,180.00,-45.00,OPEN,0
653863.113,0,0,0,1.000,1.000,1.000,-90.00,180.00,-45.00,OPEN,0
653863.163,0,0,0,1.000,1.000,1.000,-90.00,180.00,-45.00,OPEN,0
653863.212,0,0,0,1.000,1.000,1.000,-90.00,180.00,-45.00,OPEN,0
653863.262,0,0,0,1.000,1.000,1.000,-90.00,180.00,-45.00,OPEN,0
653863.312,0,0,0,1.000,1.000,1.000,-90.00,180.00,-45.00,OPEN,0
653863.363,0,0,0,1.000,1.000,1.000,-90.00,180.00,-45.00,OPEN,0
653863.412,0,0,0,1.000,1.000,1.000,-90.00,180.00,-45.00,OPEN,0
653863.462,0,0,0,1.000,1.000,1.000,-90.00,180.00,-45.00,OPEN,0
653863.513,0,0,0,1.000,1.000,1.000,-90.00,180.00,-45.00,OPEN,0
653863.563,0,0,0,1.000,1.000,1.000,-90.00,180.00,-45.00,OPEN,0
653863.612,0,0,0,1.000,1.000,1.000,-90.00,180.00,-45.00,OPEN,0
653863.663,0,0,0,1.000,1.000,1.000,-90.00,180.00,-45.00,OPEN,0
653863.712,0,0,0,1.000,1.000,1.000,-90.00,180.00,-45.00,OPEN,0
653863.762,0,0,0,1.000,1.000,1.000,-90.00,180.00,-45.00,OPEN,0
653863.812,0,0,0,1.000,1.000,1.000,-90.00,180.00,-45.00,OPEN,0
653863.864,0,0,0,1.000,1.000,1.000,-90.00,180.00,-45.00,OPEN,0
653863.913,0,0,0,1.000,1.000,1.000,-90.00,180.00,-45.00,OPEN,0
653863.963,0,0,0,1.000,1.000,1.000,-90.00,180.00,-45.00,OPEN,0
653864.012,0,0,0,1.000,1.000,1.000,-90.00,180.00,-45.00,OPEN,0
653864.062,0,0,0,1.000,1.000,1.000,-90.00,180.00,-45.00,OPEN,0
653864.113,0,0,0,1.000,1.000,1.000,-90.00,180.00,-45.00,OPEN,0
653864.162,0,0,0,1.000,1.000,1.000,-90.00,180.00,-45.00,OPEN,0
653864.213,0,0,0,1.000,1.000,1.000,-90.00,180.00,-45.00,OPEN,0
653864.262,0,0,0,1.000,1.000,1.000,-90.00,180.00,-45.00,OPEN,0
653864.313,0,0,0,1.000,1.000,1.000,-90.00,180.00,-45.00,OPEN,0
653864.362,0,0,0,0.999,1.000,1.000,-90.00,180.00,-45.00,OPEN,0
653864.412,0,0,0,0.997,1.000,1.000,-90.00,180.00,-45.00,OPEN,0
653864.462,0,0,0,0.997,1.000,1.000,-90.00,180.00,-45.00,OPEN,0
653864.513,0,0,0,0.991,1.000,1.000,-90.00,180.00,-45.00,OPEN,0
653864.563,0,0,0,0.989,1.000,1.000,-90.00,180.00,-45.00,OPEN,0
653864.613,0,0,0,0.999,1.000,1.000,-90.00,180.00,-45.00,OPEN,0
653864.665,0,0,0,1.000,1.000,1.000,-90.00,180.00,-45.00,OPEN,0
653864.712,0,0,0,1.000,1.000,1.000,-90.00,180.00,-45.00,OPEN,0
653864.762,0,0,0,1.000,1.000,1.000,-90.00,180.00,-45.00,OPEN,0
653864.812,0,0,0,1.000,1.000,1.000,-90.00,180.00,-45.00,OPEN,0
653864.862,0,0,0,1.000,1.000,1.000,-90.00,180.00,-45.00,OPEN,0
653864.912,0,0,0,1.000,1.000,1.000,-90.00,180.00,-45.00,OPEN,0
653864.963,0,0,0,1.000,1.000,1.000,-90.00,180.00,-45.00,OPEN,0
653865.012,0,0,0,1.000,1.000,1.000,-90.00,180.00,-45.00,OPEN,0
653865.062,0,0,0,1.000,1.000,1.000,-90.00,180.00,-45.00,OPEN,0
653865.112,0,0,0,1.000,1.000,1.000,-90.00,180.00,-45.00,OPEN,0
653865.162,0,0,0,1.000,1.000,1.000,-90.00,180.00,-45.00,OPEN,0
653865.214,0,0,0,1.000,1.000,1.000,-90.00,180.00,-45.00,OPEN,0
653865.263,0,0,0,1.000,1.000,1.000,-90.00,180.00,-45.00,OPEN,0
653865.313,0,0,0,1.000,1.000,1.000,-90.00,180.00,-45.00,OPEN,0
653865.363,0,0,0,1.000,1.000,1.000,-90.00,180.00,-45.00,OPEN,0
653865.413,0,0,0,1.000,1.000,1.000,-90.00,180.00,-45.00,OPEN,0
653865.463,0,0,0,1.000,1.000,1.000,-90.00,180.00,-45.00,OPEN,0
653865.512,0,0,0,1.000,1.000,1.000,-90.00,180.00,-45.00,OPEN,0
653865.562,0,0,0,1.000,1.000,1.000,-90.00,180.00,-45.00,OPEN,0
653865.612,0,0,0,1.000,1.000,1.000,-90.00,180.00,-45.00,OPEN,0
653865.663,0,0,0,1.000,1.000,1.000,-90.00,180.00,-45.00,OPEN,0
653865.712,0,0,0,1.000,1.000,1.000,-90.00,180.00,-45.00,OPEN,0
653865.763,0,0,0,1.000,1.000,1.000,-90.00,180.00,-45.00,OPEN,0
653865.813,0,0,0,1.000,1.000,1.000,-90.00,180.00,-45.00,OPEN,0
653865.863,0,0,0,1.000,1.000,1.000,-90.00,180.00,-45.00,OPEN,0
653865.913,0,0,0,1.000,1.000,1.000,-90.00,180.00,-45.00,OPEN,0
653865.963,0,0,0,0.863,1.000,1.000,-90.00,180.00,-45.00,OPEN,0
653866.013,0,0,0,0.956,1.000,1.000,-90.00,180.00,-45.00,OPEN,0
653866.062,0,0,0,0.993,1.000,1.000,-90.00,180.00,-45.00,OPEN,0
653866.112,0,0,0,0.993,1.000,1.000,-90.00,180.00,-45.00,OPEN,0
653866.162,0,0,0,0.970,1.000,1.000,-90.00,180.00,-45.00,OPEN,0
653866.212,0,0,0,0.616,1.000,1.000,-90.00,180.00,-45.00,OPEN,0
653866.263,0,0,0,0.909,1.000,1.000,-90.00,180.00,-45.00,OPEN,0
653866.313,0,0,0,0.990,1.000,1.000,-90.00,180.00,-45.00,OPEN,0
653866.362,0,0,0,0.994,1.000,1.000,-90.00,180.00,-45.00,OPEN,0
653866.412,0,0,0,0.995,1.000,1.000,-90.00,180.00,-45.00,OPEN,0
653866.462,0,0,0,0.996,1.000,1.000,-90.00,180.00,-45.00,OPEN,0
653866.513,0,0,0,0.995,1.000,1.000,-90.00,180.00,-45.00,OPEN,0
653866.563,0,0,0,0.993,1.000,1.000,-90.00,180.00,-45.00,OPEN,0
653866.613,3,0,0,0.990,1.000,1.000,-90.00,180.00,-45.00,CLOSED,0
653866.663,3,0,0,0.985,1.000,1.000,-90.00,180.00,-45.00,CLOSED,0
653866.712,3,0,0,0.983,1.000,1.000,-90.00,180.00,-45.00,CLOSED,0
653866.763,3,0,0,0.985,1.000,1.000,-90.00,180.00,-45.00,CLOSED,0
653866.812,3,0,0,0.989,1.000,1.000,-90.00,180.00,-45.00,CLOSED,0
653866.863,3,0,0,0.995,1.000,1.000,-90.00,180.00,-45.00,CLOSED,0
653866.914,3,0,0,0.997,1.000,1.000,-90.00,180.00,-45.00,CLOSED,0
653866.964,3,0,0,0.999,1.000,1.000,-90.00,180.00,-45.00,CLOSED,0
653867.014,3,0,0,0.999,1.000,1.000,-90.00,180.00,-45.00,CLOSED,0
653867.063,3,0,0,1.000,1.000,1.000,-90.00,180.00,-45.00,CLOSED,0
653867.113,3,0,0,1.000,1.000,1.000,-90.00,180.00,-45.00,CLOSED,0
653867.163,3,0,0,1.000,1.000,1.000,-90.00,180.00,-45.00,CLOSED,0
653867.212,3,0,0,1.000,1.000,1.000,-90.00,180.00,-45.00,CLOSED,0
653867.262,3,0,0,1.000,1.000,1.000,-90.00,180.00,-45.00,CLOSED,0
653867.312,3,0,0,1.000,1.000,1.000,-90.00,180.00,-45.00,CLOSED,0
653867.362,3,0,0,1.000,1.000,1.000,-90.00,180.00,-45.00,CLOSED,0
653867.412,3,0,0,1.000,1.000,1.000,-90.00,180.00,-45.00,CLOSED,0
653867.462,3,0,0,1.000,1.000,1.000,-90.00,180.00,-45.00,CLOSED,0
653867.513,3,0,0,1.000,1.000,1.000,-90.00,180.00,-45.00,CLOSED,0
653867.564,3,0,0,1.000,1.000,1.000,-90.00,180.00,-45.00,CLOSED,0
653867.613,3,0,0,1.000,1.000,1.000,-90.00,180.00,-45.00,CLOSED,0
653867.662,3,0,0,1.000,1.000,1.000,-90.00,180.00,-45.00,CLOSED,0
653867.712,3,0,0,1.000,1.000,1.000,-90.00,180.00,-45.00,CLOSED,0
653867.764,3,0,0,1.000,1.000,1.000,-90.00,180.00,-45.00,CLOSED,0
653867.813,3,0,0,1.000,1.000,1.000,-90.00,180.00,-45.00,CLOSED,0
653867.862,3,0,0,0.999,1.000,1.000,-90.00,180.00,-45.00,CLOSED,0
653867.913,3,0,0,0.997,1.000,1.000,-90.00,180.00,-45.00,CLOSED,0
653867.963,3,0,0,0.992,1.000,1.000,-90.00,180.00,-45.00,CLOSED,0
653868.013,3,0,0,0.987,1.000,1.000,-90.00,180.00,-45.00,CLOSED,0
653868.063,3,0,0,0.985,1.000,1.000,-90.00,180.00,-45.00,CLOSED,0
653868.112,3,0,0,0.989,1.000,1.000,-90.00,180.00,-45.00,CLOSED,0
653868.163,3,0,0,0.993,1.000,1.000,-90.00,180.00,-45.00,CLOSED,0
653868.213,3,0,0,0.996,1.000,1.000,-90.00,180.00,-45.00,CLOSED,0
653868.263,3,0,0,0.997,1.000,1.000,-90.00,180.00,-45.00,CLOSED,0
653868.313,3,0,0,0.998,1.000,1.000,-90.00,180.00,-45.00,CLOSED,0
653868.363,3,0,0,0.998,1.000,1.000,-90.00,180.00,-45.00,CLOSED,0
653868.413,3,0,0,0.999,1.000,1.000,-90.00,180.00,-45.00,CLOSED,0
653868.462,3,0,0,0.999,1.000,1.000,-90.00,180.00,-45.00,CLOSED,0
653868.514,3,0,0,0.999,1.000,1.000,-90.00,180.00,-45.00,CLOSED,0
653868.563,3,0,0,1.000,1.000,1.000,-90.00,180.00,-45.00,CLOSED,0
653868.612,3,0,0,1.000,1.000,1.000,-90.00,180.00,-45.00,CLOSED,0
653868.663,3,0,0,1.000,1.000,1.000,-90.00,180.00,-45.00,CLOSED,0
653868.712,3,0,0,1.000,1.000,1.000,-90.00,180.00,-45.00,CLOSED,0
653868.762,3,0,0,1.000,1.000,1.000,-90.00,180.00,-45.00,CLOSED,0
653868.812,3,0,0,1.000,1.000,1.000,-90.00,180.00,-45.00,CLOSED,0
653868.863,3,0,0,1.000,1.000,1.000,-90.00,180.00,-45.00,CLOSED,0
653868.913,3,0,0,1.000,1.000,1.000,-90.00,180.00,-45.00,CLOSED,0
653868.962,3,0,0,1.000,1.000,1.000,-90.00,180.00,-45.00,CLOSED,0
653869.012,3,0,0,1.000,1.000,1.000,-90.00,180.00,-45.00,CLOSED,0
653869.063,3,0,0,1.000,1.000,1.000,-90.00,180.00,-45.00,CLOSED,0
653869.112,3,0,0,1.000,1.000,1.000,-90.00,180.00,-45.00,CLOSED,0
653869.163,3,0,0,1.000,1.000,1.000,-90.00,180.00,-45.00,CLOSED,0
653869.213,3,0,0,1.000,1.000,1.000,-90.00,180.00,-45.00,CLOSED,0
653869.262,3,0,0,1.000,1.000,1.000,-90.00,180.00,-45.00,CLOSED,0
653869.313,3,0,0,1.000,1.000,1.000,-90.00,180.00,-45.00,CLOSED,0
653869.363,3,0,0,1.000,1.000,1.000,-90.00,180.00,-45.00,CLOSED,0
653869.412,3,0,0,1.000,1.000,1.000,-90.00,180.00,-45.00,CLOSED,0
653869.462,3,0,0,1.000,1.000,1.000,-90.00,180.00,-45.00,CLOSED,0
653869.514,3,0,0,1.000,1.000,1.000,-90.00,180.00,-45.00,CLOSED,0
653869.563,3,0,0,1.000,1.000,1.000,-90.00,180.00,-45.00,CLOSED,0
653869.612,3,0,0,1.000,1.000,1.000,-90.00,180.00,-45.00,CLOSED,0
653869.662,3,0,0,1.000,1.000,1.000,-90.00,180.00,-45.00,CLOSED,0
653869.713,3,0,0,1.000,1.000,1.000,-90.00,180.00,-45.00,CLOSED,0
653869.763,3,0,0,1.000,1.000,1.000,-90.00,180.00,-45.00,CLOSED,0
653869.812,3,0,0,1.000,1.000,1.000,-90.00,180.00,-45.00,CLOSED,0
653869.863,3,0,0,1.000,1.000,1.000,-90.00,180.00,-45.00,CLOSED,0
653869.917,3,0,0,1.000,1.000,1.000,-90.00,180.00,-45.00,CLOSED,0
653869.968,3,0,0,1.000,1.000,1.000,-90.00,180.00,-45.00,CLOSED,0
653870.015,3,0,0,1.000,1.000,1.000,-90.00,180.00,-45.00,CLOSED,0
653870.065,3,0,0,1.000,1.000,1.000,-90.00,180.00,-45.00,CLOSED,0
653870.114,3,0,0,1.000,1.000,1.000,-90.00,180.00,-45.00,CLOSED,0
653870.166,3,0,0,1.000,1.000,1.000,-90.00,180.00,-45.00,CLOSED,0
653870.215,3,0,0,1.000,1.000,1.000,-90.00,180.00,-45.00,CLOSED,0
653870.266,3,0,0,1.000,1.000,1.000,-90.00,180.00,-45.00,CLOSED,0
653870.315,3,0,0,1.000,1.000,1.000,-90.00,180.00,-45.00,CLOSED,0
653870.365,3,0,0,1.000,1.000,1.000,-90.00,180.00,-45.00,CLOSED,0
653870.421,3,0,0,1.000,1.000,1.000,-90.00,180.00,-45.00,CLOSED,0
653870.464,3,0,0,1.000,1.000,1.000,-90.00,180.00,-45.00,CLOSED,0
653870.514,3,0,0,1.000,1.000,1.000,-90.00,180.00,-45.00,CLOSED,0
653870.568,3,0,0,1.000,1.000,1.000,-90.00,180.00,-45.00,CLOSED,0
653870.615,3,0,0,1.000,1.000,1.000,-90.00,180.00,-45.00,CLOSED,0
653870.667,3,0,0,1.000,1.000,1.000,-90.00,180.00,-45.00,CLOSED,0
653870.714,3,0,0,1.000,1.000,1.000,-90.00,180.00,-45.00,CLOSED,0
653870.766,3,0,0,1.000,1.000,1.000,-90.00,180.00,-45.00,CLOSED,0
653870.816,3,0,0,1.000,1.000,1.000,-90.00,180.00,-45.00,CLOSED,0
653870.864,3,0,0,1.000,1.000,1.000,-90.00,180.00,-45.00,CLOSED,0
653870.913,3,0,0,1.000,1.000,1.000,-90.00,180.00,-45.00,CLOSED,0
653870.964,3,0,0,1.000,1.000,1.000,-90.00,180.00,-45.00,CLOSED,0
653871.013,3,0,0,1.000,1.000,1.000,-90.00,180.00,-45.00,CLOSED,0
653871.064,3,0,0,1.000,1.000,1.000,-90.00,180.00,-45.00,CLOSED,0
653871.113,3,0,0,1.000,1.000,1.000,-90.00,180.00,-45.00,CLOSED,0
653871.163,3,0,0,1.000,1.000,1.000,-90.00,180.00,-45.00,CLOSED,0
653871.213,3,0,0,1.000,1.000,1.000,-90.00,180.00,-45.00,CLOSED,0
653871.265,3,0,0,0.999,1.000,1.000,-90.00,180.00,-45.00,CLOSED,0
653871.313,3,0,0,0.999,1.000,1.000,-90.00,180.00,-45.00,CLOSED,0
653871.365,3,0,0,0.999,1.000,1.000,-90.00,180.00,-45.00,CLOSED,0
653871.412,3,0,0,1.000,1.000,1.000,-90.00,180.00,-45.00,CLOSED,0
653871.463,3,0,0,1.000,1.000,1.000,-90.00,180.00,-45.00,CLOSED,0
653871.513,3,0,0,1.000,1.000,1.000,-90.00,180.00,-45.00,CLOSED,0
653871.562,3,0,0,1.000,1.000,1.000,-90.00,180.00,-45.00,CLOSED,0
653871.612,3,0,0,1.000,1.000,1.000,-90.00,180.00,-45.00,CLOSED,0
653871.662,3,0,0,1.000,1.000,1.000,-90.00,180.00,-45.00,CLOSED,0
653871.713,3,0,0,1.000,1.000,1.000,-90.00,180.00,-45.00,CLOSED,0
653871.765,3,0,0,1.000,1.000,1.000,-90.00,180.00,-45.00,CLOSED,0
653871.814,3,0,0,1.000,1.000,1.000,-90.00,180.00,-45.00,CLOSED,0
653871.864,3,0,0,1.000,1.000,1.000,-90.00,180.00,-45.00,CLOSED,0
653871.914,3,0,0,1.000,1.000,1.000,-90.00,180.00,-45.00,CLOSED,0
653871.963,3,0,0,1.000,1.000,1.000,-90.00,180.00,-45.00,CLOSED,0
653872.012,3,0,0,1.000,1.000,1.000,-90.00,180.00,-45.00,CLOSED,0
653872.063,3,0,0,1.000,1.000,1.000,-90.00,180.00,-45.00,CLOSED,0
653872.113,3,0,0,1.000,1.000,1.000,-90.00,180.00,-45.00,CLOSED,0
653872.163,3,0,0,1.000,1.000,1.000,-90.00,180.00,-45.00,CLOSED,0
653872.213,3,0,0,0.984,1.000,1.000,-90.00,180.00,-45.00,CLOSED,0
653872.262,3,0,0,0.751,1.000,1.000,-90.00,180.00,-45.00,CLOSED,0
653872.312,3,0,0,0.676,1.000,1.000,-90.00,180.00,-45.00,CLOSED,0
653872.363,3,0,0,0.897,1.000,1.000,-90.00,180.00,-45.00,CLOSED,0
653872.412,3,0,0,0.933,1.000,1.000,-90.00,180.00,-45.00,CLOSED,0
653872.463,3,0,0,0.995,1.000,1.000,-90.00,180.00,-45.00,CLOSED,0
653872.513,3,0,0,1.000,1.000,1.000,-90.00,180.00,-45.00,CLOSED,0
653872.562,3,0,0,1.000,1.000,1.000,-90.00,180.00,-45.00,CLOSED,0
653872.612,3,0,0,1.000,1.000,1.000,-90.00,180.00,-45.00,CLOSED,0
653872.662,3,0,0,1.000,1.000,1.000,-90.00,180.00,-45.00,CLOSED,0
653872.712,0,0,0,1.000,1.000,1.000,-90.00,180.00,-45.00,CLOSED,0
653872.763,0,0,0,1.000,1.000,1.000,-90.00,180.00,-45.00,CLOSED,0
653872.812,0,0,0,1.000,1.000,1.000,-90.00,180.00,-45.00,CLOSED,0
653872.863,0,0,0,1.000,1.000,1.000,-90.00,180.00,-45.00,CLOSED,0
653872.918,0,0,0,1.000,1.000,1.000,-90.00,180.00,-45.00,CLOSED,0
653872.963,0,0,0,1.000,1.000,1.000,-90.00,180.00,-45.00,CLOSED,0
653873.012,0,0,0,1.000,1.000,1.000,-90.00,180.00,-45.00,CLOSED,0
653873.062,0,0,0,1.000,1.000,1.000,-90.00,180.00,-45.00,CLOSED,0
653873.112,0,0,0,1.000,1.000,1.000,-90.00,180.00,-45.00,CLOSED,0
653873.163,0,0,0,1.000,1.000,1.000,-90.00,180.00,-45.00,CLOSED,0
653873.213,0,0,0,1.000,1.000,1.000,-90.00,180.00,-45.00,CLOSED,0
653873.262,0,0,0,1.000,1.000,1.000,-90.00,180.00,-45.00,CLOSED,0
653873.312,0,0,0,1.000,1.000,1.000,-90.00,180.00,-45.00,CLOSED,0
653873.362,0,0,0,1.000,1.000,1.000,-90.00,180.00,-45.00,CLOSED,0
653873.412,0,0,0,1.000,1.000,1.000,-90.00,180.00,-45.00,CLOSED,0
653873.463,0,0,0,1.000,1.000,1.000,-90.00,180.00,-45.00,CLOSED,0
653873.513,0,0,0,1.000,1.000,1.000,-90.00,180.00,-45.00,CLOSED,0
653873.563,0,0,0,1.000,1.000,1.000,-90.00,180.00,-45.00,CLOSED,0
653873.613,0,0,0,1.000,1.000,1.000,-90.00,180.00,-45.00,CLOSED,0
653873.662,0,0,0,1.000,1.000,1.000,-90.00,180.00,-45.00,CLOSED,0
653873.712,0,0,0,1.000,1.000,1.000,-90.00,180.00,-45.00,CLOSED,0
653873.765,0,0,0,1.000,1.000,1.000,-90.00,180.00,-45.00,CLOSED,0
653873.812,0,0,0,1.000,1.000,1.000,-90.00,180.00,-45.00,CLOSED,0
653873.862,0,0,0,1.000,1.000,1.000,-90.00,180.00,-45.00,CLOSED,0
653873.913,0,0,0,1.000,1.000,1.000,-90.00,180.00,-45.00,CLOSED,0
653873.968,0,0,0,1.000,1.000,1.000,-90.00,180.00,-45.00,CLOSED,0
653874.013,0,0,0,1.000,1.000,1.000,-90.00,180.00,-45.00,CLOSED,0
653874.062,0,0,0,1.000,1.000,1.000,-90.00,180.00,-45.00,CLOSED,0
653874.113,0,0,0,1.000,1.000,1.000,-90.00,180.00,-45.00,CLOSED,0
653874.162,0,0,0,1.000,1.000,1.000,-90.00,180.00,-45.00,CLOSED,0
653874.212,0,0,0,1.000,1.000,1.000,-90.00,180.00,-45.00,CLOSED,0
653874.262,0,0,0,1.000,1.000,1.000,-90.00,180.00,-45.00,CLOSED,0
653874.312,0,0,0,1.000,1.000,1.000,-90.00,180.00,-45.00,CLOSED,0
653874.363,0,0,0,1.000,1.000,1.000,-90.00,180.00,-45.00,CLOSED,0
653874.412,0,0,0,1.000,1.000,1.000,-90.00,180.00,-45.00,CLOSED,0
653874.463,0,0,0,1.000,1.000,1.000,-90.00,180.00,-45.00,CLOSED,0
653874.512,0,0,0,1.000,1.000,1.000,-90.00,180.00,-45.00,CLOSED,0
653874.562,0,0,0,1.000,1.000,1.000,-90.00,180.00,-45.00,CLOSED,0
653874.612,0,0,0,1.000,1.000,1.000,-90.00,180.00,-45.00,CLOSED,0
653874.662,0,0,0,1.000,1.000,1.000,-90.00,180.00,-45.00,CLOSED,0
653874.714,0,0,0,1.000,1.000,1.000,-90.00,180.00,-45.00,CLOSED,0
653874.762,0,0,0,1.000,1.000,1.000,-90.00,180.00,-45.00,CLOSED,0
653874.813,0,0,0,1.000,1.000,1.000,-90.00,180.00,-45.00,CLOSED,0
653874.862,0,0,0,1.000,1.000,1.000,-90.00,180.00,-45.00,CLOSED,0
653874.912,0,0,0,1.000,1.000,1.000,-90.00,180.00,-45.00,CLOSED,0
653874.962,0,0,0,1.000,1.000,1.000,-90.00,180.00,-45.00,CLOSED,0
653875.012,0,0,0,1.000,1.000,1.000,-90.00,180.00,-45.00,CLOSED,0
653875.062,0,0,0,1.000,1.000,1.000,-90.00,180.00,-45.00,CLOSED,0
653875.113,0,0,0,1.000,1.000,1.000,-90.00,180.00,-45.00,CLOSED,0
653875.163,0,0,0,1.000,1.000,1.000,-90.00,180.00,-45.00,CLOSED,0
653875.213,0,0,0,1.000,1.000,1.000,-90.00,180.00,-45.00,CLOSED,0
653875.262,0,0,0,1.000,1.000,1.000,-90.00,180.00,-45.00,CLOSED,0
653875.314,0,0,0,1.000,1.000,1.000,-90.00,180.00,-45.00,CLOSED,0
653875.362,0,0,0,1.000,1.000,1.000,-90.00,180.00,-45.00,CLOSED,0
653875.414,0,0,0,1.000,1.000,1.000,-90.00,180.00,-45.00,CLOSED,0
653875.462,0,0,0,1.000,1.000,1.000,-90.00,180.00,-45.00,CLOSED,0
653875.513,0,0,0,1.000,1.000,1.000,-90.00,180.00,-45.00,CLOSED,0
653875.562,0,0,0,1.000,1.000,1.000,-90.00,180.00,-45.00,CLOSED,0
653875.613,0,0,0,1.000,1.000,1.000,-90.00,180.00,-45.00,CLOSED,0
653875.662,0,0,0,1.000,1.000,1.000,-90.00,180.00,-45.00,CLOSED,0
653875.713,0,0,0,1.000,1.000,1.000,-90.00,180.00,-45.00,CLOSED,0
653875.763,0,0,0,1.000,1.000,1.000,-90.00,180.00,-45.00,CLOSED,0
653875.813,0,0,0,1.000,1.000,1.000,-90.00,180.00,-45.00,CLOSED,0
653875.862,0,0,0,1.000,1.000,1.000,-90.00,180.00,-45.00,CLOSED,0
653875.913,0,0,0,1.000,1.000,1.000,-90.00,180.00,-45.00,CLOSED,0
653875.963,0,0,0,1.000,1.000,1.000,-90.00,180.00,-45.00,CLOSED,0
653876.012,0,0,0,1.000,1.000,1.000,-90.00,180.00,-45.00,CLOSED,0
653876.063,0,0,0,1.000,1.000,1.000,-90.00,180.00,-45.00,CLOSED,0
653876.112,0,0,0,1.000,1.000,1.000,-90.00,180.00,-45.00,CLOSED,0
653876.162,0,0,0,1.000,1.000,1.000,-90.00,180.00,-45.00,CLOSED,0
653876.212,0,0,0,1.000,1.000,1.000,-90.00,180.00,-45.00,CLOSED,0
653876.262,0,0,0,1.000,1.000,1.000,-90.00,180.00,-45.00,CLOSED,0
653876.312,0,0,0,1.000,1.000,1.000,-90.00,180.00,-45.00,CLOSED,0
653876.362,0,0,0,1.000,1.000,1.000,-90.00,180.00,-45.00,CLOSED,0
653876.412,0,0,0,1.000,1.000,1.000,-90.00,180.00,-45.00,CLOSED,0
653876.462,0,0,0,1.000,1.000,1.000,-90.00,180.00,-45.00,CLOSED,0
653876.512,0,0,0,1.000,1.000,1.000,-90.00,180.00,-45.00,CLOSED,0
653876.562,0,0,0,1.000,1.000,1.000,-90.00,180.00,-45.00,CLOSED,0
653876.612,0,0,0,1.000,1.000,1.000,-90.00,180.00,-45.00,CLOSED,0
653876.662,0,0,0,1.000,1.000,1.000,-90.00,180.00,-45.00,CLOSED,0
653876.713,0,0,0,1.000,1.000,1.000,-90.00,180.00,-45.00,CLOSED,0
653876.762,0,0,0,1.000,1.000,1.000,-90.00,180.00,-45.00,CLOSED,0
653876.813,0,0,0,1.000,1.000,1.000,-90.00,180.00,-45.00,CLOSED,0
653876.862,0,0,0,1.000,1.000,1.000,-90.00,180.00,-45.00,CLOSED,0
653876.913,0,0,0,1.000,1.000,1.000,-90.00,180.00,-45.00,CLOSED,0
653876.963,0,0,0,1.000,1.000,1.000,-90.00,180.00,-45.00,CLOSED,0
653877.012,0,0,0,1.000,1.000,1.000,-90.00,180.00,-45.00,CLOSED,0
653877.062,0,0,0,1.000,1.000,1.000,-90.00,180.00,-45.00,CLOSED,0
653877.112,0,0,0,1.000,1.000,1.000,-90.00,180.00,-45.00,CLOSED,0
653877.163,0,0,0,1.000,1.000,1.000,-90.00,180.00,-45.00,CLOSED,0
653877.213,0,0,0,1.000,1.000,1.000,-90.00,180.00,-45.00,CLOSED,0
653877.263,0,0,0,1.000,1.000,1.000,-90.00,180.00,-45.00,CLOSED,0
653877.312,0,0,0,1.000,1.000,1.000,-90.00,180.00,-45.00,CLOSED,0
653877.363,0,0,0,1.000,1.000,1.000,-90.00,180.00,-45.00,CLOSED,0
653877.413,0,0,0,1.000,1.000,1.000,-90.00,180.00,-45.00,CLOSED,0
653877.463,0,0,0,1.000,1.000,1.000,-90.00,180.00,-45.00,CLOSED,0
653877.512,0,0,0,1.000,1.000,1.000,-90.00,180.00,-45.00,CLOSED,0
653877.563,0,0,0,1.000,1.000,1.000,-90.00,180.00,-45.00,CLOSED,0
653877.612,0,0,0,1.000,1.000,1.000,-90.00,180.00,-45.00,CLOSED,0
653877.663,0,0,0,1.000,1.000,1.000,-90.00,180.00,-45.00,CLOSED,0
653877.713,0,0,0,1.000,1.000,1.000,-90.00,180.00,-45.00,CLOSED,0
653877.762,0,0,0,1.000,1.000,1.000,-90.00,180.00,-45.00,CLOSED,0
653877.813,0,0,0,1.000,1.000,1.000,-90.00,180.00,-45.00,CLOSED,0
653877.862,0,0,0,1.000,1.000,1.000,-90.00,180.00,-45.00,CLOSED,0
653877.913,0,0,0,1.000,1.000,1.000,-90.00,180.00,-45.00,CLOSED,0
653877.962,0,0,0,1.000,1.000,1.000,-90.00,180.00,-45.00,CLOSED,0
653878.013,0,0,0,1.000,1.000,1.000,-90.00,180.00,-45.00,CLOSED,0
653878.062,0,0,0,1.000,1.000,1.000,-90.00,180.00,-45.00,CLOSED,0
653878.112,0,0,0,1.000,1.000,1.000,-90.00,180.00,-45.00,CLOSED,0
653878.163,0,0,0,1.000,1.000,1.000,-90.00,180.00,-45.00,CLOSED,0
653878.212,0,0,0,1.000,1.000,1.000,-90.00,180.00,-45.00,CLOSED,0
653878.263,0,0,0,1.000,1.000,1.000,-90.00,180.00,-45.00,CLOSED,0
653878.312,0,0,0,1.000,1.000,1.000,-90.00,180.00,-45.00,CLOSED,0
653878.362,0,0,0,1.000,1.000,1.000,-90.00,180.00,-45.00,CLOSED,0
653878.412,0,0,0,1.000,1.000,1.000,-90.00,180.00,-45.00,CLOSED,0
653878.462,0,0,0,1.000,1.000,1.000,-90.00,180.00,-45.00,CLOSED,0
653878.513,0,0,0,1.000,1.000,1.000,-90.00,180.00,-45.00,CLOSED,0
653878.562,0,0,0,1.000,1.000,1.000,-90.00,180.00,-45.00,CLOSED,0
653878.613,0,0,0,1.000,1.000,1.000,-90.00,180.00,-45.00,CLOSED,0
653878.662,0,0,0,1.000,1.000,1.000,-90.00,180.00,-45.00,CLOSED,0
653878.712,0,0,0,1.000,1.000,1.000,-90.00,180.00,-45.00,CLOSED,0
653878.762,0,0,0,1.000,1.000,1.000,-90.00,180.00,-45.00,CLOSED,0
653878.813,0,0,0,1.000,1.000,1.000,-90.00,180.00,-45.00,CLOSED,0
653878.863,0,0,0,1.000,1.000,1.000,-90.00,180.00,-45.00,CLOSED,0
653878.913,0,0,0,1.000,1.000,1.000,-90.00,180.00,-45.00,CLOSED,0
653878.963,0,0,0,1.000,1.000,1.000,-90.00,180.00,-45.00,CLOSED,0
653879.013,0,0,0,1.000,1.000,1.000,-90.00,180.00,-45.00,CLOSED,0
653879.062,0,0,0,1.000,1.000,1.000,-90.00,180.00,-45.00,CLOSED,0
653879.112,0,0,0,1.000,1.000,1.000,-90.00,180.00,-45.00,CLOSED,0
653879.162,0,0,0,1.000,1.000,1.000,-90.00,180.00,-45.00,CLOSED,0
653879.213,0,0,0,1.000,1.000,1.000,-90.00,180.00,-45.00,CLOSED,0
653879.263,0,0,0,1.000,1.000,1.000,-90.00,180.00,-45.00,CLOSED,0
653879.313,0,0,0,1.000,1.000,1.000,-90.00,180.00,-45.00,CLOSED,0
653879.363,0,0,0,1.000,1.000,1.000,-90.00,180.00,-45.00,CLOSED,0
653879.414,0,0,0,1.000,1.000,1.000,-90.00,180.00,-45.00,CLOSED,0
653879.463,0,0,0,1.000,1.000,1.000,-90.00,180.00,-45.00,CLOSED,0
653879.512,0,0,0,1.000,1.000,1.000,-90.00,180.00,-45.00,CLOSED,0
653879.563,0,0,0,1.000,1.000,1.000,-90.00,180.00,-45.00,CLOSED,0
653879.612,0,0,0,1.000,1.000,1.000,-90.00,180.00,-45.00,CLOSED,0
653879.662,0,0,0,1.000,1.000,1.000,-90.00,180.00,-45.00,CLOSED,0
653879.712,0,0,0,1.000,1.000,1.000,-90.00,180.00,-45.00,CLOSED,0
653879.762,0,0,0,1.000,1.000,1.000,-90.00,180.00,-45.00,CLOSED,0
653879.812,0,0,0,1.000,1.000,1.000,-90.00,180.00,-45.00,CLOSED,0
653879.862,0,0,0,1.000,1.000,1.000,-90.00,180.00,-45.00,CLOSED,0
653879.912,0,0,0,1.000,1.000,1.000,-90.00,180.00,-45.00,CLOSED,0
653879.963,0,0,0,1.000,1.000,1.000,-90.00,180.00,-45.00,CLOSED,0
653880.013,0,0,0,1.000,1.000,1.000,-90.00,180.00,-45.00,CLOSED,0
653880.062,0,0,0,1.000,1.000,1.000,-90.00,180.00,-45.00,CLOSED,0
653880.113,0,0,0,1.000,1.000,1.000,-90.00,180.00,-45.00,CLOSED,0
653880.162,0,0,0,1.000,1.000,1.000,-90.00,180.00,-45.00,CLOSED,0
653880.213,0,0,0,1.000,1.000,1.000,-90.00,180.00,-45.00,CLOSED,0
653880.263,0,0,0,1.000,1.000,1.000,-90.00,180.00,-45.00,CLOSED,0
653880.313,0,0,0,1.000,1.000,1.000,-90.00,180.00,-45.00,CLOSED,0
653880.362,0,0,0,1.000,1.000,1.000,-90.00,180.00,-45.00,CLOSED,0
653880.412,0,0,0,1.000,1.000,1.000,-90.00,180.00,-45.00,CLOSED,0
653880.462,0,0,0,1.000,1.000,1.000,-90.00,180.00,-45.00,CLOSED,0
653880.512,0,0,0,1.000,1.000,1.000,-90.00,180.00,-45.00,CLOSED,0
653880.563,0,0,0,1.000,1.000,1.000,-90.00,180.00,-45.00,CLOSED,0
653880.612,0,0,0,1.000,1.000,1.000,-90.00,180.00,-45.00,CLOSED,0
653880.663,0,0,0,1.000,1.000,1.000,-90.00,180.00,-45.00,CLOSED,0
653880.714,0,0,0,1.000,1.000,1.000,-90.00,180.00,-45.00,CLOSED,0
653880.763,0,0,0,1.000,1.000,1.000,-90.00,180.00,-45.00,CLOSED,0
653880.813,0,0,0,1.000,1.000,1.000,-90.00,180.00,-45.00,CLOSED,0
653880.862,0,0,0,1.000,1.000,1.000,-90.00,180.00,-45.00,CLOSED,0
653880.912,0,0,0,1.000,1.000,1.000,-90.00,180.00,-45.00,CLOSED,0
653880.962,0,0,0,1.000,1.000,1.000,-90.00,180.00,-45.00,CLOSED,0
653881.014,0,0,0,1.000,1.000,1.000,-90.00,180.00,-45.00,CLOSED,0
653881.062,0,0,0,1.000,1.000,1.000,-90.00,180.00,-45.00,CLOSED,0
653881.112,0,0,0,1.000,1.000,1.000,-90.00,180.00,-45.00,CLOSED,0
653881.163,0,0,0,1.000,1.000,1.000,-90.00,180.00,-45.00,CLOSED,0
653881.212,0,0,0,1.000,1.000,1.000,-90.00,180.00,-45.00,CLOSED,0
653881.262,0,0,0,1.000,1.000,1.000,-90.00,180.00,-45.00,CLOSED,0
653881.312,0,0,0,1.000,1.000,1.000,-90.00,180.00,-45.00,CLOSED,0
653881.363,0,0,0,1.000,1.000,1.000,-90.00,180.00,-45.00,CLOSED,0
653881.413,0,0,0,1.000,1.000,1.000,-90.00,180.00,-45.00,CLOSED,0
653881.463,0,0,0,1.000,1.000,1.000,-90.00,180.00,-45.00,CLOSED,0
653881.512,0,0,0,1.000,1.000,1.000,-90.00,180.00,-45.00,CLOSED,0
653881.562,0,0,0,1.000,1.000,1.000,-90.00,180.00,-45.00,CLOSED,0
653881.623,0,0,0,1.000,1.000,1.000,-90.00,180.00,-45.00,CLOSED,0
653881.663,0,0,0,1.000,1.000,1.000,-90.00,180.00,-45.00,CLOSED,0
653881.712,0,0,0,1.000,1.000,1.000,-90.00,180.00,-45.00,CLOSED,0
653881.763,0,0,0,1.000,1.000,1.000,-90.00,180.00,-45.00,CLOSED,0
653881.812,0,0,0,1.000,1.000,1.000,-90.00,180.00,-45.00,CLOSED,0
653881.863,0,0,0,1.000,1.000,1.000,-90.00,180.00,-45.00,CLOSED,0
653881.912,0,0,0,1.000,1.000,1.000,-90.00,180.00,-45.00,CLOSED,0
653881.962,0,0,0,1.000,1.000,1.000,-90.00,180.00,-45.00,CLOSED,0
653882.012,0,0,0,1.000,1.000,1.000,-90.00,180.00,-45.00,CLOSED,0
653882.062,0,0,0,1.000,1.000,1.000,-90.00,180.00,-45.00,CLOSED,0
653882.113,0,0,0,1.000,1.000,1.000,-90.00,180.00,-45.00,CLOSED,0
653882.163,0,0,0,1.000,1.000,1.000,-90.00,180.00,-45.00,CLOSED,0
653882.212,0,0,0,1.000,1.000,1.000,-90.00,180.00,-45.00,CLOSED,0
653882.263,0,0,0,1.000,1.000,1.000,-90.00,180.00,-45.00,CLOSED,0
653882.313,0,0,0,1.000,1.000,1.000,-90.00,180.00,-45.00,CLOSED,0
653882.363,0,0,0,1.000,1.000,1.000,-90.00,180.00,-45.00,CLOSED,0
653882.412,0,0,0,1.000,1.000,1.000,-90.00,180.00,-45.00,CLOSED,0
653882.463,0,0,0,1.000,1.000,1.000,-90.00,180.00,-45.00,CLOSED,0
653882.512,0,0,0,1.000,1.000,1.000,-90.00,180.00,-45.00,CLOSED,0
653882.563,0,0,0,1.000,1.000,1.000,-90.00,180.00,-45.00,CLOSED,0
653882.614,0,0,0,1.000,1.000,1.000,-90.00,180.00,-45.00,CLOSED,0
653882.663,0,0,0,1.000,1.000,1.000,-90.00,180.00,-45.00,CLOSED,0
653882.712,0,0,0,1.000,1.000,1.000,-90.00,180.00,-45.00,CLOSED,0
653882.762,0,0,0,1.000,1.000,1.000,-90.00,180.00,-45.00,CLOSED,0
653882.812,0,0,0,1.000,1.000,1.000,-90.00,180.00,-45.00,CLOSED,0
653882.863,0,0,0,1.000,1.000,1.000,-90.00,180.00,-45.00,CLOSED,0
653882.913,0,0,0,1.000,1.000,1.000,-90.00,180.00,-45.00,CLOSED,0
653882.963,0,0,0,1.000,1.000,1.000,-90.00,180.00,-45.00,CLOSED,0
653883.013,0,0,0,1.000,1.000,1.000,-90.00,180.00,-45.00,CLOSED,0
653883.063,0,0,0,1.000,1.000,1.000,-90.00,180.00,-45.00,CLOSED,0
653883.113,0,0,0,1.000,1.000,1.000,-90.00,180.00,-45.00,CLOSED,0
653883.162,0,0,0,1.000,1.000,1.000,-90.00,180.00,-45.00,CLOSED,0
653883.212,0,0,0,1.000,1.000,1.000,-90.00,180.00,-45.00,CLOSED,0
653883.262,0,0,0,1.000,1.000,1.000,-90.00,180.00,-45.00,CLOSED,0
653883.313,0,0,0,1.000,1.000,1.000,-90.00,180.00,-45.00,CLOSED,0
653883.365,0,0,0,1.000,1.000,1.000,-90.00,180.00,-45.00,CLOSED,0
653883.413,0,0,0,1.000,1.000,1.000,-90.00,180.00,-45.00,CLOSED,0
653883.463,0,0,0,1.000,1.000,1.000,-90.00,180.00,-45.00,CLOSED,0
653883.514,0,0,0,1.000,1.000,1.000,-90.00,180.00,-45.00,CLOSED,0
653883.562,0,0,0,1.000,1.000,1.000,-90.00,180.00,-45.00,CLOSED,0
653883.612,0,0,0,1.000,1.000,1.000,-90.00,180.00,-45.00,CLOSED,0
653883.662,0,0,0,1.000,1.000,1.000,-90.00,180.00,-45.00,CLOSED,0
653883.712,0,0,0,1.000,1.000,1.000,-90.00,180.00,-45.00,CLOSED,0
653883.764,0,0,0,1.000,1.000,1.000,-90.00,180.00,-45.00,CLOSED,0
653883.812,0,0,0,1.000,1.000,1.000,-90.00,180.00,-45.00,CLOSED,0
653883.863,0,0,0,1.000,1.000,1.000,-90.00,180.00,-45.00,CLOSED,0
653883.912,0,0,0,1.000,1.000,1.000,-90.00,180.00,-45.00,CLOSED,0
653883.963,0,0,0,1.000,1.000,1.000,-90.00,180.00,-45.00,CLOSED,0
653884.012,0,0,0,1.000,1.000,1.000,-90.00,180.00,-45.00,CLOSED,0
653884.062,0,0,0,1.000,1.000,1.000,-90.00,180.00,-45.00,CLOSED,0
653884.113,0,0,0,1.000,1.000,1.000,-90.00,180.00,-45.00,CLOSED,0
653884.162,0,0,0,1.000,1.000,1.000,-90.00,180.00,-45.00,CLOSED,0
653884.212,0,0,0,1.000,1.000,1.000,-90.00,180.00,-45.00,CLOSED,0
653884.264,0,0,0,1.000,1.000,1.000,-90.00,180.00,-45.00,CLOSED,0
653884.313,0,0,0,1.000,1.000,1.000,-90.00,180.00,-45.00,CLOSED,0
653884.362,0,0,0,1.000,1.000,1.000,-90.00,180.00,-45.00,CLOSED,0
653884.412,0,0,0,1.000,1.000,1.000,-90.00,180.00,-45.00,CLOSED,0
653884.463,0,0,0,1.000,1.000,1.000,-90.00,180.00,-45.00,CLOSED,0
653884.513,0,0,0,1.000,1.000,1.000,-90.00,180.00,-45.00,CLOSED,0
653884.563,0,0,0,1.000,1.000,1.000,-90.00,180.00,-45.00,CLOSED,0
653884.613,0,0,0,1.000,1.000,1.000,-90.00,180.00,-45.00,CLOSED,0
653884.663,0,0,0,1.000,1.000,1.000,-90.00,180.00,-45.00,CLOSED,0
653884.712,0,0,0,1.000,1.000,1.000,-90.00,180.00,-45.00,CLOSED,0
653884.762,0,0,0,1.000,1.000,1.000,-90.00,180.00,-45.00,CLOSED,0
653884.812,0,0,0,1.000,1.000,1.000,-90.00,180.00,-45.00,CLOSED,0
653884.862,0,0,0,1.000,1.000,1.000,-90.00,180.00,-45.00,CLOSED,0
653884.913,0,0,0,1.000,1.000,1.000,-90.00,180.00,-45.00,CLOSED,0
653884.962,0,0,0,1.000,1.000,1.000,-90.00,180.00,-45.00,CLOSED,0
653885.012,0,0,0,1.000,1.000,1.000,-90.00,180.00,-45.00,CLOSED,0
653885.062,0,0,0,1.000,1.000,1.000,-90.00,180.00,-45.00,CLOSED,0
653885.112,0,0,0,1.000,1.000,1.000,-90.00,180.00,-45.00,CLOSED,0
653885.163,0,0,0,1.000,1.000,1.000,-90.00,180.00,-45.00,CLOSED,0
653885.213,0,0,0,1.000,1.000,1.000,-90.00,180.00,-45.00,CLOSED,0
653885.263,0,0,0,1.000,1.000,1.000,-90.00,180.00,-45.00,CLOSED,0
653885.312,0,0,0,1.000,1.000,1.000,-90.00,180.00,-45.00,CLOSED,0
653885.363,0,0,0,1.000,1.000,1.000,-90.00,180.00,-45.00,CLOSED,0
653885.412,0,0,0,1.000,1.000,1.000,-90.00,180.00,-45.00,CLOSED,0
653885.462,0,0,0,1.000,1.000,1.000,-90.00,180.00,-45.00,CLOSED,0
653885.513,0,0,0,1.000,1.000,1.000,-90.00,180.00,-45.00,CLOSED,0
653885.562,0,0,0,1.000,1.000,1.000,-90.00,180.00,-45.00,CLOSED,0
653885.612,0,0,0,1.000,1.000,1.000,-90.00,180.00,-45.00,CLOSED,0
653885.662,0,0,0,1.000,1.000,1.000,-90.00,180.00,-45.00,CLOSED,0
653885.713,0,0,0,1.000,1.000,1.000,-90.00,180.00,-45.00,CLOSED,0
653885.762,0,0,0,1.000,1.000,1.000,-90.00,180.00,-45.00,CLOSED,0
653885.812,0,0,0,1.000,1.000,1.000,-90.00,180.00,-45.00,CLOSED,0
653885.863,0,0,0,1.000,1.000,1.000,-90.00,180.00,-45.00,CLOSED,0
653885.913,0,0,0,1.000,1.000,1.000,-90.00,180.00,-45.00,CLOSED,0
653885.963,0,0,0,1.000,1.000,1.000,-90.00,180.00,-45.00,CLOSED,0
653886.013,0,0,0,1.000,1.000,1.000,-90.00,180.00,-45.00,CLOSED,0
653886.062,0,0,0,1.000,1.000,1.000,-90.00,180.00,-45.00,CLOSED,0
653886.112,0,0,0,0.996,1.000,1.000,-90.00,180.00,-45.00,CLOSED,0
653886.162,0,0,0,0.993,1.000,1.000,-90.00,180.00,-45.00,CLOSED,0
653886.212,0,0,0,1.000,1.000,1.000,-90.00,180.00,-45.00,CLOSED,0
653886.263,0,0,0,1.000,1.000,1.000,-90.00,180.00,-45.00,CLOSED,0
653886.313,0,0,0,1.000,1.000,1.000,-90.00,180.00,-45.00,CLOSED,0
653886.362,0,0,0,1.000,1.000,1.000,-90.00,180.00,-45.00,CLOSED,0
653886.412,0,0,0,1.000,1.000,1.000,-90.00,180.00,-45.00,CLOSED,0
653886.463,0,0,0,1.000,1.000,1.000,-90.00,180.00,-45.00,CLOSED,0
653886.512,0,0,0,0.990,1.000,1.000,-90.00,180.00,-45.00,CLOSED,0
653886.562,0,0,0,0.999,1.000,1.000,-90.00,180.00,-45.00,CLOSED,0
653886.613,0,0,0,0.991,1.000,1.000,-90.00,180.00,-45.00,CLOSED,0
653886.663,0,0,0,0.992,1.000,1.000,-90.00,180.00,-45.00,CLOSED,0
653886.712,0,0,0,0.998,1.000,1.000,-90.00,180.00,-45.00,CLOSED,0
653886.763,0,0,0,1.000,1.000,1.000,-90.00,180.00,-45.00,CLOSED,0
653886.812,0,0,0,1.000,1.000,1.000,-90.00,180.00,-45.00,CLOSED,0
653886.863,0,0,0,1.000,1.000,1.000,-90.00,180.00,-45.00,CLOSED,0
653886.912,0,0,0,1.000,1.000,1.000,-90.00,180.00,-45.00,CLOSED,0
653886.962,0,0,0,1.000,1.000,1.000,-90.00,180.00,-45.00,CLOSED,0
653887.013,0,0,0,1.000,1.000,1.000,-90.00,180.00,-45.00,CLOSED,0
653887.063,0,0,0,1.000,1.000,1.000,-90.00,180.00,-45.00,CLOSED,0
653887.113,0,0,0,1.000,1.000,1.000,-90.00,180.00,-45.00,CLOSED,0
653887.162,0,0,0,1.000,1.000,1.000,-90.00,180.00,-45.00,CLOSED,0
653887.212,0,0,0,1.000,1.000,1.000,-90.00,180.00,-45.00,CLOSED,0
653887.263,0,0,0,1.000,1.000,1.000,-90.00,180.00,-45.00,CLOSED,0
653887.313,0,0,0,1.000,1.000,1.000,-90.00,180.00,-45.00,CLOSED,0
653887.362,0,0,0,1.000,1.000,1.000,-90.00,180.00,-45.00,CLOSED,0
653887.412,0,0,0,1.000,1.000,1.000,-90.00,180.00,-45.00,CLOSED,0
653887.463,0,0,0,1.000,1.000,1.000,-90.00,180.00,-45.00,CLOSED,0
653887.513,0,0,0,1.000,1.000,1.000,-90.00,180.00,-45.00,CLOSED,0
653887.562,0,0,0,1.000,1.000,1.000,-90.00,180.00,-45.00,CLOSED,0
653887.613,0,0,0,1.000,1.000,1.000,-90.00,180.00,-45.00,CLOSED,0
653887.663,0,0,0,1.000,1.000,1.000,-90.00,180.00,-45.00,CLOSED,0
653887.713,0,0,0,1.000,1.000,1.000,-90.00,180.00,-45.00,CLOSED,0
653887.763,0,0,0,1.000,1.000,1.000,-90.00,180.00,-45.00,CLOSED,0
653887.812,0,0,0,1.000,1.000,1.000,-90.00,180.00,-45.00,CLOSED,0
653887.863,0,0,0,1.000,1.000,1.000,-90.00,180.00,-45.00,CLOSED,0
653887.913,0,0,0,1.000,1.000,1.000,-90.00,180.00,-45.00,CLOSED,0
653887.963,0,0,0,1.000,1.000,1.000,-90.00,180.00,-45.00,CLOSED,0
653888.012,0,0,0,1.000,1.000,1.000,-90.00,180.00,-45.00,CLOSED,0
653888.062,0,0,0,1.000,1.000,1.000,-90.00,180.00,-45.00,CLOSED,0
653888.113,0,0,0,1.000,1.000,1.000,-90.00,180.00,-45.00,CLOSED,0
653888.163,0,0,0,1.000,1.000,1.000,-90.00,180.00,-45.00,CLOSED,0
653888.212,0,0,0,1.000,1.000,1.000,-90.00,180.00,-45.00,CLOSED,0
653888.291,0,0,0,1.000,1.000,1.000,-90.00,180.00,-45.00,CLOSED,0
653888.316,0,0,0,1.000,1.000,1.000,-90.00,180.00,-45.00,CLOSED,0
653888.364,0,0,0,1.000,1.000,1.000,-90.00,180.00,-45.00,CLOSED,0
653888.413,0,0,0,1.000,1.000,1.000,-90.00,180.00,-45.00,CLOSED,0
653888.462,0,0,0,1.000,1.000,1.000,-90.00,180.00,-45.00,CLOSED,0
653888.512,0,0,0,1.000,1.000,1.000,-90.00,180.00,-45.00,CLOSED,0
653888.563,0,0,0,1.000,1.000,1.000,-90.00,180.00,-45.00,CLOSED,0
653888.612,0,0,0,1.000,1.000,1.000,-90.00,180.00,-45.00,CLOSED,0
653888.663,0,0,0,1.000,1.000,1.000,-90.00,180.00,-45.00,CLOSED,0
653888.714,0,0,0,1.000,1.000,1.000,-90.00,180.00,-45.00,CLOSED,0
653888.763,0,0,0,1.000,1.000,1.000,-90.00,180.00,-45.00,CLOSED,0
653888.819,0,0,0,1.000,1.000,1.000,-90.00,180.00,-45.00,CLOSED,0
653888.864,0,0,0,1.000,1.000,1.000,-90.00,180.00,-45.00,CLOSED,0
653888.913,0,0,0,1.000,1.000,1.000,-90.00,180.00,-45.00,CLOSED,0
653888.963,0,0,0,1.000,1.000,1.000,-90.00,180.00,-45.00,CLOSED,0
653889.012,0,0,0,1.000,1.000,1.000,-90.00,180.00,-45.00,CLOSED,0
653889.063,0,0,0,1.000,1.000,1.000,-90.00,180.00,-45.00,CLOSED,0
653889.113,0,0,0,1.000,1.000,1.000,-90.00,180.00,-45.00,CLOSED,0
653889.163,0,0,0,1.000,1.000,1.000,-90.00,180.00,-45.00,CLOSED,0
653889.213,0,0,0,1.000,1.000,1.000,-90.00,180.00,-45.00,CLOSED,0
653889.263,0,0,0,1.000,1.000,1.000,-90.00,180.00,-45.00,CLOSED,0
653889.319,0,0,0,1.000,1.000,1.000,-90.00,180.00,-45.00,CLOSED,0
653889.364,0,0,0,1.000,1.000,1.000,-90.00,180.00,-45.00,CLOSED,0
653889.412,0,0,0,1.000,1.000,1.000,-90.00,180.00,-45.00,CLOSED,0
653889.462,0,0,0,1.000,1.000,1.000,-90.00,180.00,-45.00,CLOSED,0
653889.513,0,0,0,1.000,1.000,1.000,-90.00,180.00,-45.00,CLOSED,0
653889.563,0,0,0,1.000,1.000,1.000,-90.00,180.00,-45.00,CLOSED,0
653889.612,0,0,0,1.000,1.000,1.000,-90.00,180.00,-45.00,CLOSED,0
653889.664,0,0,0,1.000,1.000,1.000,-90.00,180.00,-45.00,CLOSED,0
653889.713,0,0,0,1.000,1.000,1.000,-90.00,180.00,-45.00,CLOSED,0
653889.763,0,0,0,1.000,1.000,1.000,-90.00,180.00,-45.00,CLOSED,0
653889.812,0,0,0,1.000,1.000,1.000,-90.00,180.00,-45.00,CLOSED,0
653889.863,0,0,0,1.000,1.000,1.000,-90.00,180.00,-45.00,CLOSED,0
653889.916,0,0,0,1.000,1.000,1.000,-90.00,180.00,-45.00,CLOSED,0
653889.962,0,0,0,1.000,1.000,1.000,-90.00,180.00,-45.00,CLOSED,0
653890.013,0,0,0,1.000,1.000,1.000,-90.00,180.00,-45.00,CLOSED,0
653890.062,0,0,0,1.000,1.000,1.000,-90.00,180.00,-45.00,CLOSED,0
653890.113,0,0,0,1.000,1.000,1.000,-90.00,180.00,-45.00,CLOSED,0
653890.163,0,0,0,1.000,1.000,1.000,-90.00,180.00,-45.00,CLOSED,0
653890.212,0,0,0,1.000,1.000,1.000,-90.00,180.00,-45.00,CLOSED,0
653890.263,0,0,0,1.000,1.000,1.000,-90.00,180.00,-45.00,CLOSED,0
653890.312,0,0,0,1.000,1.000,1.000,-90.00,180.00,-45.00,CLOSED,0
653890.363,0,0,0,1.000,1.000,1.000,-90.00,180.00,-45.00,CLOSED,0
653890.412,0,0,0,1.000,1.000,1.000,-90.00,180.00,-45.00,CLOSED,0
653890.464,0,0,0,1.000,1.000,1.000,-90.00,180.00,-45.00,CLOSED,0
653890.512,0,0,0,1.000,1.000,1.000,-90.00,180.00,-45.00,CLOSED,0
653890.562,0,0,0,1.000,1.000,1.000,-90.00,180.00,-45.00,CLOSED,0
653890.612,0,0,0,1.000,1.000,1.000,-90.00,180.00,-45.00,CLOSED,0
653890.663,0,0,0,1.000,1.000,1.000,-90.00,180.00,-45.00,CLOSED,0
653890.713,0,0,0,1.000,1.000,1.000,-90.00,180.00,-45.00,CLOSED,0
653890.763,0,0,0,1.000,1.000,1.000,-90.00,180.00,-45.00,CLOSED,0
653890.813,0,0,0,1.000,1.000,1.000,-90.00,180.00,-45.00,CLOSED,0
653890.863,0,0,0,1.000,1.000,1.000,-90.00,180.00,-45.00,CLOSED,0
653890.912,0,0,0,1.000,1.000,1.000,-90.00,180.00,-45.00,CLOSED,0
653890.962,0,0,0,1.000,1.000,1.000,-90.00,180.00,-45.00,CLOSED,0
653891.018,0,0,0,1.000,1.000,1.000,-90.00,180.00,-45.00,CLOSED,0
653891.062,0,0,0,1.000,1.000,1.000,-90.00,180.00,-45.00,CLOSED,0
653891.113,0,0,0,1.000,1.000,1.000,-90.00,180.00,-45.00,CLOSED,0
653891.162,0,0,0,1.000,1.000,1.000,-90.00,180.00,-45.00,CLOSED,0
653891.212,0,0,0,1.000,1.000,1.000,-90.00,180.00,-45.00,CLOSED,0
653891.264,0,0,0,1.000,1.000,1.000,-90.00,180.00,-45.00,CLOSED,0
653891.313,0,0,0,1.000,1.000,1.000,-90.00,180.00,-45.00,CLOSED,0
653891.363,0,0,0,1.000,1.000,1.000,-90.00,180.00,-45.00,CLOSED,0
653891.413,0,0,0,1.000,1.000,1.000,-90.00,180.00,-45.00,CLOSED,0
653891.464,0,0,0,1.000,1.000,1.000,-90.00,180.00,-45.00,CLOSED,0
653891.512,0,0,0,1.000,1.000,1.000,-90.00,180.00,-45.00,CLOSED,0
653891.563,0,0,0,1.000,1.000,1.000,-90.00,180.00,-45.00,CLOSED,0
653891.613,0,0,0,1.000,1.000,1.000,-90.00,180.00,-45.00,CLOSED,0
653891.663,0,0,0,1.000,1.000,1.000,-90.00,180.00,-45.00,CLOSED,0
653891.713,0,0,0,1.000,1.000,1.000,-90.00,180.00,-45.00,CLOSED,0
653891.763,0,0,0,1.000,1.000,1.000,-90.00,180.00,-45.00,CLOSED,0
653891.813,0,0,0,1.000,1.000,1.000,-90.00,180.00,-45.00,CLOSED,0
653891.863,0,0,0,1.000,1.000,1.000,-90.00,180.00,-45.00,CLOSED,0
653891.912,0,0,0,1.000,1.000,1.000,-90.00,180.00,-45.00,CLOSED,0
653891.962,0,0,0,1.000,1.000,1.000,-90.00,180.00,-45.00,CLOSED,0
653892.012,0,0,0,1.000,1.000,1.000,-90.00,180.00,-45.00,CLOSED,0
653892.064,0,0,0,1.000,1.000,1.000,-90.00,180.00,-45.00,CLOSED,0
653892.112,0,0,0,1.000,1.000,1.000,-90.00,180.00,-45.00,CLOSED,0
653892.162,0,0,0,1.000,1.000,1.000,-90.00,180.00,-45.00,CLOSED,0
653892.213,0,0,0,1.000,1.000,1.000,-90.00,180.00,-45.00,CLOSED,0
653892.263,0,0,0,1.000,1.000,1.000,-90.00,180.00,-45.00,CLOSED,0
653892.312,0,0,0,1.000,1.000,1.000,-90.00,180.00,-45.00,CLOSED,0
653892.362,0,0,0,1.000,1.000,1.000,-90.00,180.00,-45.00,CLOSED,0
653892.415,0,0,0,1.000,1.000,1.000,-90.00,180.00,-45.00,CLOSED,0
653892.463,0,0,0,1.000,1.000,1.000,-90.00,180.00,-45.00,CLOSED,0
653892.512,0,0,0,1.000,1.000,1.000,-90.00,180.00,-45.00,CLOSED,0
653892.562,0,0,0,1.000,1.000,1.000,-90.00,180.00,-45.00,CLOSED,0
653892.613,0,0,0,1.000,1.000,1.000,-90.00,180.00,-45.00,CLOSED,0
653892.662,0,0,0,1.000,1.000,1.000,-90.00,180.00,-45.00,CLOSED,0
653892.713,0,0,0,1.000,1.000,1.000,-90.00,180.00,-45.00,CLOSED,0
653892.763,0,0,0,1.000,1.000,1.000,-90.00,180.00,-45.00,CLOSED,0
653892.813,0,0,0,1.000,1.000,1.000,-90.00,180.00,-45.00,CLOSED,0
653892.863,0,0,0,1.000,1.000,1.000,-90.00,180.00,-45.00,CLOSED,0
653892.912,0,0,0,1.000,1.000,1.000,-90.00,180.00,-45.00,CLOSED,0
653892.963,0,0,0,1.000,1.000,1.000,-90.00,180.00,-45.00,CLOSED,0
653893.013,0,0,0,1.000,1.000,1.000,-90.00,180.00,-45.00,CLOSED,0
653893.063,0,0,0,1.000,1.000,1.000,-90.00,180.00,-45.00,CLOSED,0
653893.113,0,0,0,1.000,1.000,1.000,-90.00,180.00,-45.00,CLOSED,0
653893.163,0,0,0,1.000,0.999,1.000,-90.00,180.00,-45.00,CLOSED,0
653893.212,0,0,0,1.000,0.998,1.000,-90.00,180.00,-45.00,CLOSED,0
653893.263,0,0,0,1.000,0.994,1.000,-90.00,180.00,-45.00,CLOSED,0
653893.312,0,0,0,1.000,0.973,1.000,-90.00,180.00,-45.00,CLOSED,0
653893.362,0,0,0,1.000,0.706,1.000,-90.00,180.00,-45.00,CLOSED,0
653893.414,0,0,0,1.000,0.835,1.000,-90.00,180.00,-45.00,CLOSED,0
653893.463,0,0,0,1.000,0.947,1.000,-90.00,180.00,-45.00,CLOSED,0
653893.513,0,0,0,1.000,0.962,1.000,-90.00,180.00,-45.00,CLOSED,0
653893.562,0,0,0,1.000,0.954,1.000,-90.00,180.00,-45.00,CLOSED,0
653893.612,0,0,0,1.000,0.886,1.000,-90.00,180.00,-45.00,CLOSED,0
653893.662,0,0,0,1.000,0.583,1.000,-90.00,180.00,-45.00,CLOSED,0
653893.713,0,0,0,1.000,0.745,1.000,-90.00,180.00,-45.00,CLOSED,0
653893.763,0,0,0,1.000,0.909,1.000,-90.00,180.00,-45.00,CLOSED,0
653893.813,0,0,0,1.000,0.961,0.999,-90.00,180.00,-45.00,CLOSED,0
653893.862,0,0,0,1.000,0.986,0.998,-90.00,180.00,-45.00,CLOSED,0
653893.913,0,0,0,1.000,0.994,0.997,-90.00,180.00,-45.00,CLOSED,0
653893.963,0,0,0,1.000,0.996,0.996,-90.00,180.00,-45.00,CLOSED,0
653894.012,0,0,0,1.000,0.997,0.995,-90.00,180.00,-45.00,CLOSED,0
653894.062,0,0,0,1.000,0.998,0.995,-90.00,180.00,-45.00,CLOSED,0
653894.112,0,0,0,1.000,0.998,0.994,-90.00,180.00,-45.00,CLOSED,0
653894.162,0,0,0,1.000,0.998,0.994,-90.00,180.00,-45.00,CLOSED,0
653894.215,0,0,0,1.000,0.999,0.992,-90.00,180.00,-45.00,CLOSED,0
653894.262,0,0,0,1.000,0.999,0.987,-90.00,180.00,-45.00,CLOSED,0
653894.312,0,0,0,1.000,0.999,0.979,-90.00,180.00,-45.00,CLOSED,0
653894.362,0,0,0,1.000,0.999,0.969,-90.00,180.00,-45.00,CLOSED,0
653894.412,0,0,0,1.000,1.000,0.968,-90.00,180.00,-45.00,CLOSED,0
653894.462,0,0,0,1.000,1.000,0.970,-90.00,180.00,-45.00,CLOSED,0
653894.514,0,0,0,1.000,1.000,0.976,-90.00,180.00,-45.00,CLOSED,0
653894.562,0,0,0,1.000,1.000,0.979,-90.00,180.00,-45.00,CLOSED,0
653894.612,0,0,0,1.000,0.999,0.980,-90.00,180.00,-45.00,CLOSED,0
653894.662,0,0,0,1.000,0.999,0.982,-90.00,180.00,-45.00,CLOSED,0
653894.712,0,0,0,1.000,0.998,0.983,-90.00,180.00,-45.00,CLOSED,0
653894.763,0,0,0,1.000,0.994,0.979,-90.00,180.00,-45.00,CLOSED,0
653894.814,0,0,0,1.000,0.980,0.973,-90.00,180.00,-45.00,CLOSED,0
653894.863,0,0,0,1.000,0.943,0.951,-90.00,180.00,-45.00,CLOSED,0
653894.912,0,0,0,1.000,0.888,0.924,-90.00,180.00,-45.00,CLOSED,0
653894.963,0,0,0,1.000,0.865,0.897,-90.00,180.00,-45.00,CLOSED,0
653895.012,0,0,0,1.000,0.869,0.887,-90.00,180.00,-45.00,CLOSED,0
653895.064,0,0,0,1.000,0.854,0.901,-90.00,180.00,-45.00,CLOSED,0
653895.113,0,0,0,1.000,0.831,0.929,-90.00,180.00,-45.00,CLOSED,0
653895.163,0,0,0,1.000,0.825,0.960,-90.00,180.00,-45.00,CLOSED,0
653895.212,0,0,0,1.000,0.859,0.977,-90.00,180.00,-45.00,CLOSED,0
653895.263,0,0,0,1.000,0.906,0.988,-90.00,180.00,-45.00,CLOSED,0
653895.313,0,0,0,1.000,0.942,0.992,-90.00,180.00,-45.00,CLOSED,0
653895.363,0,0,0,1.000,0.969,0.995,-90.00,180.00,-45.00,CLOSED,0
653895.412,0,0,0,1.000,0.981,0.997,-90.00,180.00,-45.00,CLOSED,0
653895.462,0,0,0,1.000,0.989,0.998,-90.00,180.00,-45.00,CLOSED,0
653895.513,0,0,0,1.000,0.992,0.998,-90.00,180.00,-45.00,CLOSED,0
653895.563,0,0,0,1.000,0.995,0.998,-90.00,180.00,-45.00,CLOSED,0
653895.612,0,0,0,1.000,0.996,0.998,-90.00,180.00,-45.00,CLOSED,0
653895.663,0,0,0,1.000,0.997,0.998,-90.00,180.00,-45.00,CLOSED,0
653895.713,0,0,0,1.000,0.996,0.997,-90.00,180.00,-45.00,CLOSED,0
653895.762,0,0,0,1.000,0.995,0.996,-90.00,180.00,-45.00,CLOSED,0
653895.813,0,0,0,1.000,0.989,0.994,-90.00,180.00,-45.00,CLOSED,0
653895.862,0,0,0,1.000,0.962,0.989,-90.00,180.00,-45.00,CLOSED,0
653895.913,0,0,0,1.000,0.843,0.982,-90.00,180.00,-45.00,CLOSED,0
653895.963,0,0,0,1.000,0.502,0.973,-90.00,180.00,-45.00,CLOSED,0
653896.013,0,0,0,1.000,0.804,0.970,-90.00,180.00,-45.00,CLOSED,0
653896.062,0,0,0,1.000,0.892,0.972,-90.00,180.00,-45.00,CLOSED,0
653896.113,0,0,0,1.000,0.892,0.979,-90.00,180.00,-45.00,CLOSED,0
653896.162,0,0,0,1.000,0.818,0.984,-90.00,180.00,-45.00,CLOSED,0
653896.212,0,0,0,1.000,0.657,0.989,-90.00,180.00,-45.00,CLOSED,0
653896.262,0,0,0,1.000,0.515,0.990,-90.00,180.00,-45.00,CLOSED,0
653896.313,0,0,0,1.000,0.650,0.990,-90.00,180.00,-45.00,CLOSED,0
653896.363,0,0,0,1.000,0.754,0.989,-90.00,180.00,-45.00,CLOSED,0
653896.412,0,0,0,1.000,0.770,0.988,-90.00,180.00,-45.00,CLOSED,0
653896.462,0,0,0,1.000,0.735,0.985,-90.00,180.00,-45.00,CLOSED,0
653896.512,0,0,0,1.000,0.698,0.983,-90.00,180.00,-45.00,CLOSED,0
653896.563,0,0,0,1.000,0.645,0.984,-90.00,180.00,-45.00,CLOSED,0
653896.612,0,0,0,1.000,0.608,0.985,-90.00,180.00,-45.00,CLOSED,0
653896.663,0,0,0,1.000,0.618,0.989,-90.00,180.00,-45.00,CLOSED,0
653896.712,0,0,0,1.000,0.718,0.990,-90.00,180.00,-45.00,CLOSED,0
653896.762,0,0,0,1.000,0.775,0.992,-90.00,180.00,-45.00,CLOSED,0
653896.812,0,0,0,1.000,0.844,0.990,-90.00,180.00,-45.00,CLOSED,0
653896.863,0,0,0,1.000,0.898,0.991,-90.00,180.00,-45.00,CLOSED,0
653896.912,0,0,0,1.000,0.915,0.989,-90.00,180.00,-45.00,CLOSED,0
653896.963,0,0,0,1.000,0.913,0.986,-90.00,180.00,-45.00,CLOSED,0
653897.013,0,0,0,1.000,0.908,0.983,-90.00,180.00,-45.00,CLOSED,0
653897.062,0,0,0,1.000,0.883,0.972,-90.00,180.00,-45.00,CLOSED,0
653897.112,0,0,0,1.000,0.875,0.955,-90.00,180.00,-45.00,CLOSED,0
653897.163,0,0,0,1.000,0.937,0.949,-90.00,180.00,-45.00,CLOSED,0
653897.213,0,0,0,1.000,0.978,0.950,-90.00,180.00,-45.00,CLOSED,0
653897.262,0,0,0,1.000,0.992,0.962,-90.00,180.00,-45.00,CLOSED,0
653897.312,0,0,0,1.000,0.996,0.970,-90.00,180.00,-45.00,CLOSED,0
653897.363,0,0,0,1.000,0.997,0.974,-90.00,180.00,-45.00,CLOSED,0
653897.412,0,0,0,1.000,0.998,0.978,-90.00,180.00,-45.00,CLOSED,0
653897.462,0,0,0,1.000,0.998,0.979,-90.00,180.00,-45.00,CLOSED,0
653897.513,0,0,0,1.000,0.997,0.977,-90.00,180.00,-45.00,CLOSED,0
653897.562,0,0,0,1.000,0.994,0.975,-90.00,180.00,-45.00,CLOSED,0
653897.612,0,0,0,1.000,0.987,0.974,-90.00,180.00,-45.00,CLOSED,0
653897.663,0,0,0,1.000,0.955,0.970,-90.00,180.00,-45.00,CLOSED,0
653897.712,0,0,0,1.000,0.852,0.962,-90.00,180.00,-45.00,CLOSED,0
653897.762,0,0,0,1.000,0.690,0.959,-90.00,180.00,-45.00,CLOSED,0
653897.813,0,0,0,1.000,0.531,0.957,-90.00,180.00,-45.00,CLOSED,0
653897.862,0,0,0,1.000,0.596,0.954,-90.00,180.00,-45.00,CLOSED,0
653897.913,0,0,0,1.000,0.509,0.960,-90.00,180.00,-45.00,CLOSED,0
653897.963,0,0,0,1.000,0.617,0.963,-90.00,180.00,-45.00,CLOSED,0
653898.013,0,0,0,1.000,0.725,0.964,-90.00,180.00,-45.00,CLOSED,0
653898.062,0,0,0,1.000,0.760,0.968,-90.00,180.00,-45.00,CLOSED,0
653898.113,0,0,0,1.000,0.755,0.971,-90.00,180.00,-45.00,CLOSED,0
653898.163,0,0,0,1.000,0.711,0.976,-90.00,180.00,-45.00,CLOSED,0
653898.213,0,0,0,1.000,0.637,0.980,-90.00,180.00,-45.00,CLOSED,0
653898.263,0,0,0,1.000,0.555,0.980,-90.00,180.00,-45.00,CLOSED,0
653898.314,0,0,0,1.000,0.519,0.983,-90.00,180.00,-45.00,CLOSED,0
653898.362,0,0,0,1.000,0.550,0.983,-90.00,180.00,-45.00,CLOSED,0
653898.413,0,0,0,1.000,0.720,0.981,-90.00,180.00,-45.00,CLOSED,0
653898.463,0,0,0,1.000,0.863,0.972,-90.00,180.00,-45.00,CLOSED,0
653898.513,0,0,0,1.000,0.956,0.953,-90.00,180.00,-45.00,CLOSED,0
653898.563,0,0,0,1.000,0.980,0.932,-90.00,180.00,-45.00,CLOSED,0
653898.613,0,0,0,1.000,0.987,0.903,-90.00,180.00,-45.00,CLOSED,0
653898.662,0,0,0,1.000,0.988,0.892,-90.00,180.00,-45.00,CLOSED,0
653898.712,0,0,0,1.000,0.986,0.895,-90.00,180.00,-45.00,CLOSED,0
653898.762,0,0,0,1.000,0.977,0.924,-90.00,180.00,-45.00,CLOSED,0
653898.813,0,0,0,1.000,0.950,0.968,-90.00,180.00,-45.00,CLOSED,0
653898.863,0,0,0,1.000,0.926,0.987,-90.00,180.00,-45.00,CLOSED,0
653898.912,0,0,0,1.000,0.941,0.996,-90.00,180.00,-45.00,CLOSED,0
653898.963,0,0,0,1.000,0.975,0.999,-90.00,180.00,-45.00,CLOSED,0
653899.013,0,0,0,1.000,0.987,0.999,-90.00,180.00,-45.00,CLOSED,0
653899.065,0,0,0,1.000,0.995,0.999,-90.00,180.00,-45.00,CLOSED,0
653899.113,0,0,0,1.000,0.999,0.999,-90.00,180.00,-45.00,CLOSED,0
653899.163,0,0,0,1.000,1.000,0.999,-90.00,180.00,-45.00,CLOSED,0
653899.213,0,0,0,1.000,1.000,0.999,-90.00,180.00,-45.00,CLOSED,0
653899.264,0,0,0,1.000,1.000,0.999,-90.00,180.00,-45.00,CLOSED,0
653899.313,0,0,0,1.000,1.000,1.000,-90.00,180.00,-45.00,CLOSED,0
653899.362,0,0,0,1.000,1.000,1.000,-90.00,180.00,-45.00,CLOSED,0
653899.413,0,0,0,1.000,1.000,1.000,-90.00,180.00,-45.00,CLOSED,0
653899.462,0,0,0,1.000,1.000,1.000,-90.00,180.00,-45.00,CLOSED,0
653899.513,0,0,0,1.000,0.998,1.000,-90.00,180.00,-45.00,CLOSED,0
653899.563,0,0,0,0.999,0.998,1.000,-90.00,180.00,-45.00,CLOSED,0
653899.613,0,0,0,0.999,0.998,1.000,-90.00,180.00,-45.00,CLOSED,0
653899.663,0,0,0,0.999,0.999,1.000,-90.00,180.00,-45.00,CLOSED,0
653899.712,0,0,0,1.000,1.000,1.000,-90.00,180.00,-45.00,CLOSED,0
653899.762,0,0,0,1.000,1.000,1.000,-90.00,180.00,-45.00,CLOSED,0
653899.812,0,0,0,1.000,1.000,1.000,-90.00,180.00,-45.00,CLOSED,0
653899.884,0,0,0,1.000,1.000,1.000,-90.00,180.00,-45.00,CLOSED,0
653899.920,0,0,0,1.000,1.000,1.000,-90.00,180.00,-45.00,CLOSED,0
653899.963,0,0,0,1.000,1.000,1.000,-90.00,180.00,-45.00,CLOSED,0
653900.013,0,0,0,1.000,1.000,1.000,-90.00,180.00,-45.00,CLOSED,0
653900.063,0,0,0,1.000,1.000,1.000,-90.00,180.00,-45.00,CLOSED,0
653900.112,0,0,0,1.000,1.000,1.000,-90.00,180.00,-45.00,CLOSED,0
653900.163,0,0,0,1.000,1.000,1.000,-90.00,180.00,-45.00,CLOSED,0
653900.216,0,0,0,1.000,1.000,1.000,-90.00,180.00,-45.00,CLOSED,0
653900.263,0,0,0,1.000,1.000,1.000,-90.00,180.00,-45.00,CLOSED,0
653900.313,0,0,0,1.000,1.000,1.000,-90.00,180.00,-45.00,CLOSED,0
653900.362,0,0,0,1.000,1.000,1.000,-90.00,180.00,-45.00,CLOSED,0
653900.412,0,0,0,1.000,1.000,1.000,-90.00,180.00,-45.00,CLOSED,0
653900.463,0,0,0,1.000,1.000,1.000,-90.00,180.00,-45.00,CLOSED,0
653900.516,0,0,0,1.000,1.000,1.000,-90.00,180.00,-45.00,CLOSED,0
653900.562,0,0,0,1.000,1.000,1.000,-90.00,180.00,-45.00,CLOSED,0
653900.613,0,0,0,1.000,1.000,1.000,-90.00,180.00,-45.00,CLOSED,0
653900.662,0,0,0,1.000,1.000,1.000,-90.00,180.00,-45.00,CLOSED,0
653900.713,0,0,0,1.000,1.000,1.000,-90.00,180.00,-45.00,CLOSED,0
653900.763,0,0,0,1.000,1.000,1.000,-90.00,180.00,-45.00,CLOSED,0
653900.813,0,0,0,1.000,1.000,1.000,-90.00,180.00,-45.00,CLOSED,0
653900.862,0,0,0,1.000,1.000,1.000,-90.00,180.00,-45.00,CLOSED,0
653900.913,0,0,0,1.000,1.000,1.000,-90.00,180.00,-45.00,CLOSED,0
653900.962,0,0,0,1.000,1.000,1.000,-90.00,180.00,-45.00,CLOSED,0
653901.012,0,0,0,1.000,1.000,1.000,-90.00,180.00,-45.00,CLOSED,0
653901.063,0,0,0,1.000,1.000,1.000,-90.00,180.00,-45.00,CLOSED,0
653901.113,0,0,0,1.000,1.000,1.000,-90.00,180.00,-45.00,CLOSED,0
653901.162,0,0,0,1.000,1.000,1.000,-90.00,180.00,-45.00,CLOSED,0
653901.212,0,0,0,1.000,1.000,1.000,-90.00,180.00,-45.00,CLOSED,0
653901.263,0,0,0,1.000,1.000,1.000,-90.00,180.00,-45.00,CLOSED,0
653901.312,0,0,0,1.000,1.000,1.000,-90.00,180.00,-45.00,CLOSED,0
653901.363,0,0,0,1.000,1.000,1.000,-90.00,180.00,-45.00,CLOSED,0
653901.412,0,0,0,1.000,1.000,1.000,-90.00,180.00,-45.00,CLOSED,0
653901.462,0,0,0,1.000,1.000,1.000,-90.00,180.00,-45.00,CLOSED,0
653901.512,0,0,0,1.000,1.000,1.000,-90.00,180.00,-45.00,CLOSED,0
653901.562,0,0,0,1.000,1.000,1.000,-90.00,180.00,-45.00,CLOSED,0
653901.612,0,0,0,1.000,1.000,1.000,-90.00,180.00,-45.00,CLOSED,0
653901.663,0,0,0,1.000,1.000,1.000,-90.00,180.00,-45.00,CLOSED,0
653901.713,0,0,0,1.000,1.000,1.000,-90.00,180.00,-45.00,CLOSED,0
653901.762,0,0,0,1.000,1.000,1.000,-90.00,180.00,-45.00,CLOSED,0
653901.813,0,0,0,1.000,1.000,1.000,-90.00,180.00,-45.00,CLOSED,0
653901.862,0,0,0,1.000,1.000,1.000,-90.00,180.00,-45.00,CLOSED,0
653901.912,0,0,0,1.000,1.000,1.000,-90.00,180.00,-45.00,CLOSED,0
653901.963,0,0,0,1.000,1.000,1.000,-90.00,180.00,-45.00,CLOSED,0
653902.013,0,0,0,1.000,1.000,1.000,-90.00,180.00,-45.00,CLOSED,0
653902.063,0,0,0,1.000,1.000,1.000,-90.00,180.00,-45.00,CLOSED,0
653902.112,0,0,0,1.000,1.000,1.000,-90.00,180.00,-45.00,CLOSED,0
653902.164,0,0,0,1.000,1.000,1.000,-90.00,180.00,-45.00,CLOSED,0
653902.213,0,0,0,1.000,1.000,1.000,-90.00,180.00,-45.00,CLOSED,0
653902.263,0,0,0,1.000,1.000,1.000,-90.00,180.00,-45.00,CLOSED,0
653902.313,0,0,0,1.000,1.000,1.000,-90.00,180.00,-45.00,CLOSED,0
653902.363,0,0,0,1.000,1.000,1.000,-90.00,180.00,-45.00,CLOSED,0
653902.413,0,0,0,1.000,1.000,1.000,-90.00,180.00,-45.00,CLOSED,0
653902.463,0,0,0,1.000,1.000,1.000,-90.00,180.00,-45.00,CLOSED,0
653902.514,0,0,0,1.000,1.000,1.000,-90.00,180.00,-45.00,CLOSED,0
653902.562,0,0,0,1.000,1.000,1.000,-90.00,180.00,-45.00,CLOSED,0
653902.613,0,0,0,1.000,1.000,1.000,-90.00,180.00,-45.00,CLOSED,0
653902.662,0,0,0,1.000,1.000,1.000,-90.00,180.00,-45.00,CLOSED,0
653902.713,0,0,0,1.000,1.000,1.000,-90.00,180.00,-45.00,CLOSED,0
653902.764,0,0,0,1.000,1.000,1.000,-90.00,180.00,-45.00,CLOSED,0
653902.812,0,0,0,1.000,1.000,1.000,-90.00,180.00,-45.00,CLOSED,0
653902.863,0,0,0,1.000,1.000,1.000,-90.00,180.00,-45.00,CLOSED,0
653902.912,0,0,0,1.000,1.000,1.000,-90.00,180.00,-45.00,CLOSED,0
653902.962,0,0,0,1.000,1.000,1.000,-90.00,180.00,-45.00,CLOSED,0
653903.014,0,0,0,1.000,1.000,1.000,-90.00,180.00,-45.00,CLOSED,0
653903.063,0,0,0,1.000,1.000,1.000,-90.00,180.00,-45.00,CLOSED,0
653903.113,0,0,0,1.000,1.000,1.000,-90.00,180.00,-45.00,CLOSED,0
653903.163,0,0,0,1.000,1.000,1.000,-90.00,180.00,-45.00,CLOSED,0
653903.213,0,0,0,1.000,1.000,1.000,-90.00,180.00,-45.00,CLOSED,0
653903.267,0,0,0,1.000,1.000,1.000,-90.00,180.00,-45.00,CLOSED,0
653903.320,0,0,0,1.000,1.000,1.000,-90.00,180.00,-45.00,CLOSED,0
653903.363,0,0,0,1.000,1.000,1.000,-90.00,180.00,-45.00,CLOSED,0
653903.413,0,0,0,1.000,1.000,1.000,-90.00,180.00,-45.00,CLOSED,0
653903.463,0,0,0,1.000,1.000,1.000,-90.00,180.00,-45.00,CLOSED,0
653903.513,0,0,0,1.000,1.000,1.000,-90.00,180.00,-45.00,CLOSED,0
653903.563,0,0,0,1.000,1.000,1.000,-90.00,180.00,-45.00,CLOSED,0
653903.612,0,0,0,1.000,1.000,1.000,-90.00,180.00,-45.00,CLOSED,0
653903.663,0,0,0,1.000,1.000,1.000,-90.00,180.00,-45.00,CLOSED,0
653903.713,0,0,0,1.000,1.000,1.000,-90.00,180.00,-45.00,CLOSED,0
653903.763,0,0,0,1.000,1.000,1.000,-90.00,180.00,-45.00,CLOSED,0
653903.812,0,0,0,1.000,1.000,1.000,-90.00,180.00,-45.00,CLOSED,0
653903.862,0,0,0,1.000,1.000,1.000,-90.00,180.00,-45.00,CLOSED,0
653903.913,0,0,0,1.000,1.000,1.000,-90.00,180.00,-45.00,CLOSED,0
653903.963,0,0,0,1.000,1.000,1.000,-90.00,180.00,-45.00,CLOSED,0
653904.015,0,0,0,1.000,1.000,1.000,-90.00,180.00,-45.00,CLOSED,0
653904.062,0,0,0,1.000,1.000,1.000,-90.00,180.00,-45.00,CLOSED,0
653904.112,0,0,0,1.000,1.000,1.000,-90.00,180.00,-45.00,CLOSED,0
653904.162,0,0,0,1.000,1.000,1.000,-90.00,180.00,-45.00,CLOSED,0
653904.213,0,0,0,1.000,1.000,1.000,-90.00,180.00,-45.00,CLOSED,0
653904.263,0,0,0,1.000,1.000,1.000,-90.00,180.00,-45.00,CLOSED,0
653904.313,0,0,0,1.000,1.000,1.000,-90.00,180.00,-45.00,CLOSED,0
653904.362,0,0,0,1.000,1.000,1.000,-90.00,180.00,-45.00,CLOSED,0
653904.413,0,0,0,1.000,1.000,1.000,-90.00,180.00,-45.00,CLOSED,0
653904.462,0,0,0,1.000,1.000,1.000,-90.00,180.00,-45.00,CLOSED,0
653904.513,0,0,0,1.000,1.000,1.000,-90.00,180.00,-45.00,CLOSED,0
653904.563,0,0,0,1.000,1.000,1.000,-90.00,180.00,-45.00,CLOSED,0
653904.613,0,0,0,1.000,1.000,1.000,-90.00,180.00,-45.00,CLOSED,0
653904.662,0,0,0,1.000,1.000,1.000,-90.00,180.00,-45.00,CLOSED,0
653904.712,0,0,0,1.000,1.000,1.000,-90.00,180.00,-45.00,CLOSED,0
653904.763,0,0,0,1.000,1.000,1.000,-90.00,180.00,-45.00,CLOSED,0
653904.812,0,0,0,1.000,1.000,1.000,-90.00,180.00,-45.00,CLOSED,0
653904.863,0,0,0,1.000,1.000,1.000,-90.00,180.00,-45.00,CLOSED,0
653904.913,0,0,0,1.000,1.000,1.000,-90.00,180.00,-45.00,CLOSED,0
653904.963,0,0,0,1.000,1.000,1.000,-90.00,180.00,-45.00,CLOSED,0
653905.013,0,0,0,1.000,1.000,1.000,-90.00,180.00,-45.00,CLOSED,0
653905.064,0,0,0,1.000,1.000,1.000,-90.00,180.00,-45.00,CLOSED,0
653905.112,0,0,0,1.000,1.000,1.000,-90.00,180.00,-45.00,CLOSED,0
653905.162,0,0,0,1.000,1.000,1.000,-90.00,180.00,-45.00,CLOSED,0
653905.212,0,0,0,1.000,1.000,1.000,-90.00,180.00,-45.00,CLOSED,0
653905.262,0,0,0,1.000,1.000,1.000,-90.00,180.00,-45.00,CLOSED,0
653905.312,0,0,0,1.000,1.000,1.000,-90.00,180.00,-45.00,CLOSED,0
653905.362,0,0,0,1.000,1.000,1.000,-90.00,180.00,-45.00,CLOSED,0
653905.413,0,0,0,1.000,1.000,1.000,-90.00,180.00,-45.00,CLOSED,0
653905.462,0,0,0,1.000,1.000,1.000,-90.00,180.00,-45.00,CLOSED,0
653905.513,0,0,0,1.000,1.000,1.000,-90.00,180.00,-45.00,CLOSED,0
653905.563,0,0,0,1.000,1.000,1.000,-90.00,180.00,-45.00,CLOSED,0
653905.613,0,0,0,1.000,1.000,1.000,-90.00,180.00,-45.00,CLOSED,0
653905.665,0,0,0,1.000,1.000,1.000,-90.00,180.00,-45.00,CLOSED,0
653905.713,0,0,0,1.000,1.000,1.000,-90.00,180.00,-45.00,CLOSED,0
653905.763,0,0,0,1.000,1.000,1.000,-90.00,180.00,-45.00,CLOSED,0
653905.813,0,0,0,1.000,1.000,1.000,-90.00,180.00,-45.00,CLOSED,0
653905.863,0,0,0,1.000,1.000,1.000,-90.00,180.00,-45.00,CLOSED,0
653905.913,0,0,0,1.000,1.000,1.000,-90.00,180.00,-45.00,CLOSED,0
653905.963,0,0,0,1.000,1.000,1.000,-90.00,180.00,-45.00,CLOSED,0
653906.013,0,0,0,1.000,1.000,1.000,-90.00,180.00,-45.00,CLOSED,0
653906.062,0,0,0,1.000,1.000,1.000,-90.00,180.00,-45.00,CLOSED,0
653906.113,0,0,0,1.000,1.000,1.000,-90.00,180.00,-45.00,CLOSED,0
653906.163,0,0,0,1.000,1.000,1.000,-90.00,180.00,-45.00,CLOSED,0
653906.213,0,0,0,1.000,1.000,1.000,-90.00,180.00,-45.00,CLOSED,0
653906.262,0,0,0,1.000,1.000,1.000,-90.00,180.00,-45.00,CLOSED,0
653906.312,0,0,0,1.000,1.000,1.000,-90.00,180.00,-45.00,CLOSED,0
653906.363,0,0,0,1.000,1.000,1.000,-90.00,180.00,-45.00,CLOSED,0
653906.412,0,0,0,1.000,1.000,1.000,-90.00,180.00,-45.00,CLOSED,0
653906.463,0,0,0,1.000,1.000,1.000,-90.00,180.00,-45.00,CLOSED,0
653906.512,0,0,0,1.000,1.000,1.000,-90.00,180.00,-45.00,CLOSED,0
653906.562,0,0,0,1.000,1.000,1.000,-90.00,180.00,-45.00,CLOSED,0
653906.612,0,0,0,1.000,1.000,1.000,-90.00,180.00,-45.00,CLOSED,0
653906.662,0,0,0,1.000,1.000,1.000,-90.00,180.00,-45.00,CLOSED,0
653906.712,0,0,0,0.999,1.000,1.000,-90.00,180.00,-45.00,CLOSED,0
653906.762,0,0,0,0.992,1.000,1.000,-90.00,180.00,-45.00,CLOSED,0
653906.813,0,0,0,0.991,1.000,1.000,-90.00,180.00,-45.00,CLOSED,0
653906.862,0,0,0,0.997,1.000,1.000,-90.00,180.00,-45.00,CLOSED,0
653906.914,0,0,0,0.992,1.000,1.000,-90.00,180.00,-45.00,CLOSED,0
653906.962,0,0,0,0.989,1.000,1.000,-90.00,180.00,-45.00,CLOSED,0
653907.012,0,0,0,0.995,1.000,1.000,-90.00,180.00,-45.00,CLOSED,0
653907.062,0,0,0,0.987,1.000,1.000,-90.00,180.00,-45.00,CLOSED,0
653907.113,0,0,0,0.986,1.000,1.000,-90.00,180.00,-45.00,CLOSED,0
653907.162,0,0,0,0.989,1.000,1.000,-90.00,180.00,-45.00,CLOSED,0
653907.212,0,0,0,0.998,0.999,1.000,-90.00,180.00,-45.00,CLOSED,0
653907.263,0,0,0,0.999,0.950,1.000,-90.00,180.00,-45.00,CLOSED,0
653907.312,0,0,0,0.999,0.765,1.000,-90.00,180.00,-45.00,CLOSED,0
653907.362,0,0,0,0.995,0.989,1.000,-90.00,180.00,-45.00,CLOSED,0
653907.413,0,0,0,0.985,0.999,1.000,-90.00,180.00,-45.00,CLOSED,0
653907.462,0,0,0,0.989,1.000,1.000,-90.00,180.00,-45.00,CLOSED,0
653907.513,0,0,0,0.994,1.000,1.000,-90.00,180.00,-45.00,CLOSED,0
653907.562,0,0,0,0.997,1.000,1.000,-90.00,180.00,-45.00,CLOSED,0
653907.612,0,0,0,0.999,1.000,1.000,-90.00,180.00,-45.00,CLOSED,0
653907.662,0,0,0,0.999,1.000,1.000,-90.00,180.00,-45.00,CLOSED,0
653907.713,0,1,0,0.996,1.000,1.000,-90.00,90.00,-45.00,CLOSED,1
653907.763,0,1,0,0.999,1.000,1.000,-90.00,90.00,-45.00,CLOSED,0
653907.813,0,1,0,1.000,1.000,1.000,-90.00,90.00,-45.00,CLOSED,0
653907.862,0,1,0,1.000,1.000,1.000,-90.00,90.00,-45.00,CLOSED,0
653907.912,0,1,0,1.000,1.000,0.999,-90.00,90.00,-45.00,CLOSED,0
653907.962,0,1,0,1.000,1.000,0.998,-90.00,90.00,-45.00,CLOSED,0
653908.012,0,1,0,1.000,1.000,0.996,-90.00,90.00,-45.00,CLOSED,0
653908.062,0,1,0,1.000,1.000,0.994,-90.00,90.00,-45.00,CLOSED,0
653908.113,0,1,0,1.000,1.000,0.993,-90.00,90.00,-45.00,CLOSED,0
653908.163,0,1,0,1.000,1.000,0.992,-90.00,90.00,-45.00,CLOSED,0
653908.212,0,1,0,1.000,1.000,0.990,-90.00,90.00,-45.00,CLOSED,0
653908.262,0,1,0,1.000,1.000,0.988,-90.00,90.00,-45.00,CLOSED,0
653908.312,0,1,0,1.000,1.000,0.987,-90.00,90.00,-45.00,CLOSED,0
653908.363,0,1,0,1.000,1.000,0.986,-90.00,90.00,-45.00,CLOSED,0
653908.413,0,1,0,1.000,1.000,0.986,-90.00,90.00,-45.00,CLOSED,0
653908.462,0,1,0,1.000,1.000,0.989,-90.00,90.00,-45.00,CLOSED,0
653908.513,0,1,0,1.000,1.000,0.991,-90.00,90.00,-45.00,CLOSED,0
653908.562,0,1,0,1.000,1.000,0.993,-90.00,90.00,-45.00,CLOSED,0
653908.612,0,1,0,1.000,0.999,0.994,-90.00,90.00,-45.00,CLOSED,0
653908.662,0,1,0,1.000,0.999,0.994,-90.00,90.00,-45.00,CLOSED,0
653908.713,0,1,0,1.000,0.999,0.994,-90.00,90.00,-45.00,CLOSED,0
653908.764,0,1,0,1.000,0.999,0.994,-90.00,90.00,-45.00,CLOSED,0
653908.812,0,1,0,1.000,0.999,0.993,-90.00,90.00,-45.00,CLOSED,0
653908.862,0,1,0,1.000,0.999,0.993,-90.00,90.00,-45.00,CLOSED,0
653908.913,0,1,0,1.000,0.999,0.991,-90.00,90.00,-45.00,CLOSED,0
653908.963,0,1,0,1.000,0.999,0.989,-90.00,90.00,-45.00,CLOSED,0
653909.012,0,1,0,1.000,1.000,0.989,-90.00,90.00,-45.00,CLOSED,0
653909.062,0,1,0,1.000,1.000,0.988,-90.00,90.00,-45.00,CLOSED,0
653909.112,0,1,0,1.000,1.000,0.991,-90.00,90.00,-45.00,CLOSED,0
653909.163,0,1,0,1.000,1.000,0.995,-90.00,90.00,-45.00,CLOSED,0
653909.212,0,1,0,1.000,1.000,0.997,-90.00,90.00,-45.00,CLOSED,0
653909.262,0,1,0,1.000,1.000,0.998,-90.00,90.00,-45.00,CLOSED,0
653909.312,0,1,0,1.000,1.000,0.999,-90.00,90.00,-45.00,CLOSED,0
653909.362,0,1,0,1.000,1.000,0.999,-90.00,90.00,-45.00,CLOSED,0
653909.413,0,1,0,1.000,1.000,0.999,-90.00,90.00,-45.00,CLOSED,0
653909.463,0,1,0,1.000,1.000,0.999,-90.00,90.00,-45.00,CLOSED,0
653909.513,0,1,0,1.000,1.000,0.999,-90.00,90.00,-45.00,CLOSED,0
653909.562,0,1,0,1.000,1.000,0.998,-90.00,90.00,-45.00,CLOSED,0
653909.612,0,1,0,1.000,1.000,0.997,-90.00,90.00,-45.00,CLOSED,0
653909.663,0,1,0,1.000,1.000,0.994,-90.00,90.00,-45.00,CLOSED,0
653909.712,0,1,0,1.000,0.999,0.988,-90.00,90.00,-45.00,CLOSED,0
653909.763,0,1,0,1.000,0.999,0.982,-90.00,90.00,-45.00,CLOSED,0
653909.812,0,1,0,1.000,0.998,0.985,-90.00,90.00,-45.00,CLOSED,0
653909.863,0,1,0,1.000,0.997,0.991,-90.00,90.00,-45.00,CLOSED,0
653909.912,0,1,0,1.000,0.997,0.995,-90.00,90.00,-45.00,CLOSED,0
653909.963,0,1,0,1.000,0.996,0.997,-90.00,90.00,-45.00,CLOSED,0
653910.012,0,1,0,1.000,0.995,0.998,-90.00,90.00,-45.00,CLOSED,0
653910.062,0,1,0,1.000,0.996,0.999,-90.00,90.00,-45.00,CLOSED,0
653910.113,0,1,0,1.000,0.997,0.998,-90.00,90.00,-45.00,CLOSED,0
653910.163,0,1,0,1.000,0.997,0.998,-90.00,90.00,-45.00,CLOSED,0
653910.213,0,1,0,1.000,0.998,0.997,-90.00,90.00,-45.00,CLOSED,0
653910.262,0,1,0,1.000,0.998,0.994,-90.00,90.00,-45.00,CLOSED,0
653910.312,0,1,0,1.000,0.999,0.988,-90.00,90.00,-45.00,CLOSED,0
653910.362,0,1,0,1.000,0.999,0.979,-90.00,90.00,-45.00,CLOSED,0
653910.413,0,1,0,1.000,0.999,0.976,-90.00,90.00,-45.00,CLOSED,0
653910.463,0,1,0,1.000,0.999,0.981,-90.00,90.00,-45.00,CLOSED,0
653910.512,0,1,0,1.000,0.999,0.984,-90.00,90.00,-45.00,CLOSED,0
653910.563,0,1,0,1.000,0.998,0.988,-90.00,90.00,-45.00,CLOSED,0
653910.612,0,1,0,1.000,0.998,0.993,-90.00,90.00,-45.00,CLOSED,0
653910.662,0,1,0,1.000,0.998,0.995,-90.00,90.00,-45.00,CLOSED,0
653910.712,0,1,0,1.000,0.998,0.997,-90.00,90.00,-45.00,CLOSED,0
653910.762,0,1,0,1.000,0.999,0.998,-90.00,90.00,-45.00,CLOSED,0
653910.812,0,1,0,1.000,0.999,0.998,-90.00,90.00,-45.00,CLOSED,0
653910.862,0,1,0,1.000,0.999,0.999,-90.00,90.00,-45.00,CLOSED,0
653910.912,0,1,0,1.000,0.999,0.999,-90.00,90.00,-45.00,CLOSED,0
653910.962,0,1,0,1.000,1.000,0.999,-90.00,90.00,-45.00,CLOSED,0
653911.012,0,1,0,1.000,1.000,0.998,-90.00,90.00,-45.00,CLOSED,0
653911.062,0,1,0,1.000,1.000,0.998,-90.00,90.00,-45.00,CLOSED,0
653911.112,0,1,0,1.000,1.000,0.998,-90.00,90.00,-45.00,CLOSED,0
653911.163,0,1,0,1.000,1.000,0.999,-90.00,90.00,-45.00,CLOSED,0
653911.212,0,1,0,1.000,1.000,0.999,-90.00,90.00,-45.00,CLOSED,0
653911.263,0,1,0,1.000,1.000,1.000,-90.00,90.00,-45.00,CLOSED,0
653911.312,0,1,0,1.000,1.000,1.000,-90.00,90.00,-45.00,CLOSED,0
653911.362,0,1,0,1.000,1.000,1.000,-90.00,90.00,-45.00,CLOSED,0
653911.412,0,1,0,1.000,1.000,1.000,-90.00,90.00,-45.00,CLOSED,0
653911.462,0,1,0,1.000,1.000,1.000,-90.00,90.00,-45.00,CLOSED,0
653911.512,0,1,0,1.000,1.000,1.000,-90.00,90.00,-45.00,CLOSED,0
653911.563,0,1,0,1.000,1.000,1.000,-90.00,90.00,-45.00,CLOSED,0
653911.613,0,1,0,1.000,1.000,1.000,-90.00,90.00,-45.00,CLOSED,0
653911.662,0,1,0,1.000,1.000,1.000,-90.00,90.00,-45.00,CLOSED,0
653911.713,0,1,0,1.000,1.000,1.000,-90.00,90.00,-45.00,CLOSED,0
653911.762,0,1,0,1.000,1.000,0.999,-90.00,90.00,-45.00,CLOSED,0
653911.812,0,1,0,1.000,1.000,0.999,-90.00,90.00,-45.00,CLOSED,0
653911.863,0,1,0,1.000,1.000,0.999,-90.00,90.00,-45.00,CLOSED,0
653911.912,0,1,0,1.000,1.000,0.999,-90.00,90.00,-45.00,CLOSED,0
653911.963,0,1,0,1.000,1.000,0.999,-90.00,90.00,-45.00,CLOSED,0
653912.012,0,1,0,1.000,1.000,0.999,-90.00,90.00,-45.00,CLOSED,0
653912.062,0,1,0,1.000,1.000,0.999,-90.00,90.00,-45.00,CLOSED,0
653912.112,0,1,0,1.000,1.000,0.999,-90.00,90.00,-45.00,CLOSED,0
653912.163,0,1,0,1.000,1.000,0.999,-90.00,90.00,-45.00,CLOSED,0
653912.212,0,1,0,1.000,1.000,0.999,-90.00,90.00,-45.00,CLOSED,0
653912.263,0,1,0,1.000,1.000,0.998,-90.00,90.00,-45.00,CLOSED,0
653912.312,0,1,0,1.000,1.000,0.996,-90.00,90.00,-45.00,CLOSED,0
653912.362,0,1,0,1.000,0.999,0.992,-90.00,90.00,-45.00,CLOSED,0
653912.412,0,1,0,1.000,0.998,0.985,-90.00,90.00,-45.00,CLOSED,0
653912.462,0,1,0,1.000,0.988,0.978,-90.00,90.00,-45.00,CLOSED,0
653912.513,0,1,0,1.000,0.924,0.974,-90.00,90.00,-45.00,CLOSED,0
653912.562,0,1,0,1.000,0.623,0.976,-90.00,90.00,-45.00,CLOSED,0
653912.613,0,1,0,1.000,0.959,0.989,-90.00,90.00,-45.00,CLOSED,0
653912.662,0,1,0,1.000,0.995,0.995,-90.00,90.00,-45.00,CLOSED,0
653912.712,0,1,0,1.000,0.999,0.996,-90.00,90.00,-45.00,CLOSED,0
653912.763,0,1,0,1.000,1.000,0.998,-90.00,90.00,-45.00,CLOSED,0
653912.812,0,1,0,1.000,1.000,0.998,-90.00,90.00,-45.00,CLOSED,0
653912.863,0,1,0,1.000,1.000,0.999,-90.00,90.00,-45.00,CLOSED,0
653912.912,0,1,0,1.000,1.000,0.999,-90.00,90.00,-45.00,CLOSED,0
653912.962,0,0,0,1.000,1.000,0.999,-90.00,180.00,-45.00,CLOSED,1
653913.012,0,0,0,1.000,0.999,1.000,-90.00,180.00,-45.00,CLOSED,0
653913.063,0,0,0,1.000,0.999,1.000,-90.00,180.00,-45.00,CLOSED,0
653913.112,0,0,0,1.000,0.998,1.000,-90.00,180.00,-45.00,CLOSED,0
653913.163,0,0,0,1.000,0.996,1.000,-90.00,180.00,-45.00,CLOSED,0
653913.212,0,0,0,0.999,0.994,1.000,-90.00,180.00,-45.00,CLOSED,0
653913.262,0,0,0,0.999,0.986,1.000,-90.00,180.00,-45.00,CLOSED,0
653913.312,0,0,0,0.999,0.981,1.000,-90.00,180.00,-45.00,CLOSED,0
653913.362,0,0,0,0.999,0.985,1.000,-90.00,180.00,-45.00,CLOSED,0
653913.413,0,0,0,0.999,0.996,1.000,-90.00,180.00,-45.00,CLOSED,0
653913.463,0,0,0,0.997,0.996,1.000,-90.00,180.00,-45.00,CLOSED,0
653913.512,0,0,0,0.997,1.000,1.000,-90.00,180.00,-45.00,CLOSED,0
653913.562,0,0,0,0.994,1.000,1.000,-90.00,180.00,-45.00,CLOSED,0
653913.612,0,0,0,0.998,1.000,1.000,-90.00,180.00,-45.00,CLOSED,0
653913.662,0,0,0,0.999,1.000,1.000,-90.00,180.00,-45.00,CLOSED,0
653913.712,0,0,0,1.000,1.000,1.000,-90.00,180.00,-45.00,CLOSED,0
653913.763,0,0,0,1.000,1.000,1.000,-90.00,180.00,-45.00,CLOSED,0
653913.813,0,0,0,1.000,1.000,1.000,-90.00,180.00,-45.00,CLOSED,0
653913.863,0,0,0,1.000,1.000,1.000,-90.00,180.00,-45.00,CLOSED,0
653913.913,0,0,0,0.999,1.000,1.000,-90.00,180.00,-45.00,CLOSED,0
653913.962,0,0,0,1.000,1.000,1.000,-90.00,180.00,-45.00,CLOSED,0
653914.012,0,0,0,1.000,1.000,1.000,-90.00,180.00,-45.00,CLOSED,0
653914.062,0,0,0,1.000,1.000,1.000,-90.00,180.00,-45.00,CLOSED,0
653914.112,0,0,0,1.000,1.000,1.000,-90.00,180.00,-45.00,CLOSED,0
653914.163,0,0,0,1.000,1.000,1.000,-90.00,180.00,-45.00,CLOSED,0
653914.212,0,0,0,1.000,1.000,1.000,-90.00,180.00,-45.00,CLOSED,0
653914.263,0,0,0,1.000,1.000,1.000,-90.00,180.00,-45.00,CLOSED,0
653914.313,0,0,0,1.000,1.000,1.000,-90.00,180.00,-45.00,CLOSED,0
653914.362,0,0,0,1.000,1.000,1.000,-90.00,180.00,-45.00,CLOSED,0
653914.412,0,0,0,1.000,1.000,1.000,-90.00,180.00,-45.00,CLOSED,0
653914.463,0,0,0,1.000,1.000,1.000,-90.00,180.00,-45.00,CLOSED,0
653914.512,0,0,0,1.000,1.000,1.000,-90.00,180.00,-45.00,CLOSED,0
653914.563,0,0,0,1.000,1.000,1.000,-90.00,180.00,-45.00,CLOSED,0
653914.612,0,0,0,1.000,1.000,1.000,-90.00,180.00,-45.00,CLOSED,0
653914.663,0,0,0,1.000,1.000,1.000,-90.00,180.00,-45.00,CLOSED,0
653914.713,0,0,0,1.000,1.000,1.000,-90.00,180.00,-45.00,CLOSED,0
653914.763,0,0,0,1.000,1.000,1.000,-90.00,180.00,-45.00,CLOSED,0
653914.812,0,0,0,1.000,1.000,1.000,-90.00,180.00,-45.00,CLOSED,0
653914.862,0,0,0,1.000,1.000,1.000,-90.00,180.00,-45.00,CLOSED,0
653914.912,0,0,0,1.000,1.000,1.000,-90.00,180.00,-45.00,CLOSED,0
653914.962,0,0,0,1.000,1.000,1.000,-90.00,180.00,-45.00,CLOSED,0
653915.013,0,0,0,1.000,1.000,1.000,-90.00,180.00,-45.00,CLOSED,0
653915.063,0,0,0,1.000,1.000,1.000,-90.00,180.00,-45.00,CLOSED,0
653915.113,0,0,0,1.000,1.000,1.000,-90.00,180.00,-45.00,CLOSED,0
653915.165,0,0,0,1.000,1.000,1.000,-90.00,180.00,-45.00,CLOSED,0
653915.212,0,0,0,1.000,1.000,1.000,-90.00,180.00,-45.00,CLOSED,0
653915.262,0,0,0,1.000,1.000,1.000,-90.00,180.00,-45.00,CLOSED,0
653915.312,0,0,0,1.000,1.000,1.000,-90.00,180.00,-45.00,CLOSED,0
653915.362,0,0,0,1.000,1.000,1.000,-90.00,180.00,-45.00,CLOSED,0
653915.412,0,0,0,1.000,1.000,1.000,-90.00,180.00,-45.00,CLOSED,0
653915.462,0,0,0,1.000,1.000,1.000,-90.00,180.00,-45.00,CLOSED,0
653915.513,0,0,0,1.000,1.000,1.000,-90.00,180.00,-45.00,CLOSED,0
653915.563,0,0,0,1.000,1.000,1.000,-90.00,180.00,-45.00,CLOSED,0
653915.612,0,0,0,1.000,1.000,1.000,-90.00,180.00,-45.00,CLOSED,0
653915.662,0,0,0,1.000,1.000,1.000,-90.00,180.00,-45.00,CLOSED,0
653915.713,0,0,0,1.000,1.000,1.000,-90.00,180.00,-45.00,CLOSED,0
653915.763,0,0,0,1.000,1.000,1.000,-90.00,180.00,-45.00,CLOSED,0
653915.813,0,0,0,1.000,1.000,1.000,-90.00,180.00,-45.00,CLOSED,0
653915.863,0,0,0,1.000,1.000,1.000,-90.00,180.00,-45.00,CLOSED,0
653915.913,0,0,0,1.000,1.000,1.000,-90.00,180.00,-45.00,CLOSED,0
653915.962,0,0,0,1.000,1.000,1.000,-90.00,180.00,-45.00,CLOSED,0
653916.012,0,0,0,1.000,1.000,1.000,-90.00,180.00,-45.00,CLOSED,0
653916.063,0,0,0,1.000,1.000,1.000,-90.00,180.00,-45.00,CLOSED,0
653916.113,0,0,0,1.000,1.000,1.000,-90.00,180.00,-45.00,CLOSED,0
653916.178,0,0,0,1.000,1.000,1.000,-90.00,180.00,-45.00,CLOSED,0
653916.220,0,0,0,1.000,1.000,1.000,-90.00,180.00,-45.00,CLOSED,0
653916.263,0,0,0,1.000,1.000,1.000,-90.00,180.00,-45.00,CLOSED,0
653916.312,0,0,0,1.000,1.000,1.000,-90.00,180.00,-45.00,CLOSED,0
653916.362,0,0,0,1.000,1.000,1.000,-90.00,180.00,-45.00,CLOSED,0
653916.412,0,0,0,1.000,1.000,1.000,-90.00,180.00,-45.00,CLOSED,0
653916.462,0,0,0,1.000,1.000,1.000,-90.00,180.00,-45.00,CLOSED,0
653916.513,0,0,0,1.000,1.000,1.000,-90.00,180.00,-45.00,CLOSED,0
653916.563,0,0,0,1.000,1.000,1.000,-90.00,180.00,-45.00,CLOSED,0
653916.612,0,0,0,1.000,1.000,1.000,-90.00,180.00,-45.00,CLOSED,0
653916.662,0,0,0,1.000,1.000,1.000,-90.00,180.00,-45.00,CLOSED,0
653916.713,0,0,0,1.000,1.000,1.000,-90.00,180.00,-45.00,CLOSED,0
653916.762,0,0,0,1.000,1.000,1.000,-90.00,180.00,-45.00,CLOSED,0
653916.813,0,0,0,1.000,1.000,1.000,-90.00,180.00,-45.00,CLOSED,0
653916.862,0,0,0,1.000,1.000,1.000,-90.00,180.00,-45.00,CLOSED,0
653916.912,0,0,0,1.000,1.000,1.000,-90.00,180.00,-45.00,CLOSED,0
653916.962,0,0,0,1.000,1.000,1.000,-90.00,180.00,-45.00,CLOSED,0
653917.013,0,0,0,1.000,1.000,1.000,-90.00,180.00,-45.00,CLOSED,0
653917.062,0,0,0,1.000,1.000,1.000,-90.00,180.00,-45.00,CLOSED,0
653917.113,0,0,0,1.000,1.000,1.000,-90.00,180.00,-45.00,CLOSED,0
653917.163,0,0,0,1.000,1.000,1.000,-90.00,180.00,-45.00,CLOSED,0
653917.213,0,0,0,1.000,1.000,1.000,-90.00,180.00,-45.00,CLOSED,0
653917.262,0,0,0,1.000,1.000,1.000,-90.00,180.00,-45.00,CLOSED,0
653917.312,0,0,0,1.000,1.000,1.000,-90.00,180.00,-45.00,CLOSED,0
653917.362,0,0,0,1.000,1.000,1.000,-90.00,180.00,-45.00,CLOSED,0
653917.412,0,0,0,1.000,1.000,1.000,-90.00,180.00,-45.00,CLOSED,0
653917.463,0,0,0,1.000,1.000,1.000,-90.00,180.00,-45.00,CLOSED,0
653917.513,0,0,0,1.000,1.000,1.000,-90.00,180.00,-45.00,CLOSED,0
653917.563,0,0,0,1.000,1.000,1.000,-90.00,180.00,-45.00,CLOSED,0
653917.612,0,0,0,1.000,1.000,1.000,-90.00,180.00,-45.00,CLOSED,0
653917.662,0,0,0,1.000,1.000,1.000,-90.00,180.00,-45.00,CLOSED,0
653917.713,0,0,0,1.000,1.000,1.000,-90.00,180.00,-45.00,CLOSED,0
653917.762,0,0,0,1.000,1.000,1.000,-90.00,180.00,-45.00,CLOSED,0
653917.812,0,0,0,1.000,1.000,1.000,-90.00,180.00,-45.00,CLOSED,0
653917.863,0,0,0,1.000,1.000,1.000,-90.00,180.00,-45.00,CLOSED,0
653917.913,0,0,0,1.000,1.000,1.000,-90.00,180.00,-45.00,CLOSED,0
653917.962,0,0,0,1.000,1.000,1.000,-90.00,180.00,-45.00,CLOSED,0
653918.012,0,0,0,1.000,1.000,1.000,-90.00,180.00,-45.00,CLOSED,0
653918.063,0,0,0,1.000,1.000,1.000,-90.00,180.00,-45.00,CLOSED,0
653918.113,0,0,0,1.000,1.000,1.000,-90.00,180.00,-45.00,CLOSED,0
653918.163,0,0,0,1.000,1.000,1.000,-90.00,180.00,-45.00,CLOSED,0
653918.213,0,0,0,1.000,1.000,1.000,-90.00,180.00,-45.00,CLOSED,0
653918.263,0,0,0,1.000,1.000,1.000,-90.00,180.00,-45.00,CLOSED,0
653918.313,0,0,0,1.000,1.000,1.000,-90.00,180.00,-45.00,CLOSED,0
653918.362,0,0,0,1.000,1.000,1.000,-90.00,180.00,-45.00,CLOSED,0
653918.413,0,0,0,1.000,1.000,1.000,-90.00,180.00,-45.00,CLOSED,0
653918.462,0,0,0,1.000,1.000,1.000,-90.00,180.00,-45.00,CLOSED,0
653918.513,0,0,0,1.000,1.000,1.000,-90.00,180.00,-45.00,CLOSED,0
653918.562,0,0,0,1.000,1.000,1.000,-90.00,180.00,-45.00,CLOSED,0
653918.612,0,0,0,1.000,1.000,1.000,-90.00,180.00,-45.00,CLOSED,0
653918.662,0,0,0,1.000,1.000,1.000,-90.00,180.00,-45.00,CLOSED,0
653918.712,0,0,0,1.000,1.000,1.000,-90.00,180.00,-45.00,CLOSED,0
653918.762,0,0,0,1.000,1.000,1.000,-90.00,180.00,-45.00,CLOSED,0
653918.812,0,0,0,1.000,1.000,1.000,-90.00,180.00,-45.00,CLOSED,0
653918.863,0,0,0,1.000,1.000,1.000,-90.00,180.00,-45.00,CLOSED,0
653918.912,0,0,0,1.000,1.000,1.000,-90.00,180.00,-45.00,CLOSED,0
653918.963,0,0,0,1.000,1.000,1.000,-90.00,180.00,-45.00,CLOSED,0
653919.012,0,0,0,1.000,1.000,1.000,-90.00,180.00,-45.00,CLOSED,0
653919.063,0,0,0,1.000,1.000,1.000,-90.00,180.00,-45.00,CLOSED,0
653919.113,0,0,0,1.000,1.000,1.000,-90.00,180.00,-45.00,CLOSED,0
653919.163,0,0,0,1.000,1.000,1.000,-90.00,180.00,-45.00,CLOSED,0
653919.214,0,0,0,1.000,1.000,1.000,-90.00,180.00,-45.00,CLOSED,0
653919.269,0,0,0,1.000,1.000,1.000,-90.00,180.00,-45.00,CLOSED,0
653919.316,0,0,0,1.000,1.000,1.000,-90.00,180.00,-45.00,CLOSED,0
653919.363,0,0,0,1.000,1.000,1.000,-90.00,180.00,-45.00,CLOSED,0
653919.413,0,0,0,1.000,1.000,1.000,-90.00,180.00,-45.00,CLOSED,0
653919.465,0,0,0,1.000,1.000,1.000,-90.00,180.00,-45.00,CLOSED,0
653919.519,0,0,0,1.000,1.000,1.000,-90.00,180.00,-45.00,CLOSED,0
653919.569,0,0,0,1.000,1.000,1.000,-90.00,180.00,-45.00,CLOSED,0
653919.619,0,0,0,1.000,1.000,1.000,-90.00,180.00,-45.00,CLOSED,0
653919.667,0,0,0,1.000,1.000,1.000,-90.00,180.00,-45.00,CLOSED,0
653919.716,0,0,0,1.000,1.000,1.000,-90.00,180.00,-45.00,CLOSED,0
653919.768,0,0,0,1.000,1.000,1.000,-90.00,180.00,-45.00,CLOSED,0
653919.815,0,0,0,1.000,1.000,1.000,-90.00,180.00,-45.00,CLOSED,0
653919.867,0,0,0,1.000,1.000,1.000,-90.00,180.00,-45.00,CLOSED,0
653919.918,0,0,0,0.999,1.000,1.000,-90.00,180.00,-45.00,CLOSED,0
653919.967,0,0,0,0.858,1.000,1.000,-90.00,180.00,-45.00,CLOSED,0
653920.013,0,0,0,0.484,1.000,1.000,-90.00,180.00,-45.00,CLOSED,0
653920.066,0,0,0,0.481,1.000,1.000,-90.00,180.00,-45.00,CLOSED,0
653920.113,0,0,0,0.604,1.000,1.000,-90.00,180.00,-45.00,CLOSED,0
653920.166,0,0,0,0.670,1.000,1.000,-90.00,180.00,-45.00,CLOSED,0
653920.217,0,0,0,0.776,1.000,1.000,-90.00,180.00,-45.00,CLOSED,0
653920.267,0,0,0,0.937,1.000,1.000,-90.00,180.00,-45.00,CLOSED,0
653920.318,0,0,0,0.997,1.000,1.000,-90.00,180.00,-45.00,CLOSED,0
653920.366,0,0,0,1.000,1.000,1.000,-90.00,180.00,-45.00,CLOSED,0
653920.417,0,0,0,1.000,1.000,1.000,-90.00,180.00,-45.00,CLOSED,0
653920.468,0,0,0,1.000,1.000,1.000,-90.00,180.00,-45.00,CLOSED,0
653920.516,3,0,0,1.000,1.000,1.000,-90.00,180.00,-45.00,OPEN,0
653920.565,3,0,0,1.000,1.000,1.000,-90.00,180.00,-45.00,OPEN,0
653920.613,3,0,0,1.000,1.000,1.000,-90.00,180.00,-45.00,OPEN,0
653920.665,3,0,0,1.000,1.000,1.000,-90.00,180.00,-45.00,OPEN,0
653920.718,3,0,0,1.000,1.000,1.000,-90.00,180.00,-45.00,OPEN,0
653920.767,3,0,0,1.000,1.000,1.000,-90.00,180.00,-45.00,OPEN,0
653920.818,3,0,0,1.000,1.000,1.000,-90.00,180.00,-45.00,OPEN,0
653920.866,3,0,0,1.000,1.000,1.000,-90.00,180.00,-45.00,OPEN,0
653920.913,3,0,0,1.000,1.000,1.000,-90.00,180.00,-45.00,OPEN,0
653920.967,3,0,0,1.000,1.000,1.000,-90.00,180.00,-45.00,OPEN,0
653921.017,3,0,0,1.000,1.000,1.000,-90.00,180.00,-45.00,OPEN,0
653921.068,3,0,0,1.000,1.000,1.000,-90.00,180.00,-45.00,OPEN,0
653921.117,3,0,0,1.000,1.000,1.000,-90.00,180.00,-45.00,OPEN,0
653921.166,3,0,0,1.000,1.000,1.000,-90.00,180.00,-45.00,OPEN,0
653921.214,3,0,0,1.000,1.000,1.000,-90.00,180.00,-45.00,OPEN,0
653921.266,3,0,0,1.000,1.000,1.000,-90.00,180.00,-45.00,OPEN,0
653921.313,3,0,0,1.000,1.000,1.000,-90.00,180.00,-45.00,OPEN,0
653921.364,3,0,0,1.000,1.000,1.000,-90.00,180.00,-45.00,OPEN,0
653921.414,3,0,0,1.000,1.000,1.000,-90.00,180.00,-45.00,OPEN,0
653921.464,3,0,0,1.000,1.000,1.000,-90.00,180.00,-45.00,OPEN,0
653921.514,3,0,0,1.000,1.000,1.000,-90.00,180.00,-45.00,OPEN,0
653921.563,3,0,0,1.000,1.000,1.000,-90.00,180.00,-45.00,OPEN,0
653921.616,3,0,0,1.000,1.000,1.000,-90.00,180.00,-45.00,OPEN,0
653921.664,3,0,0,1.000,1.000,1.000,-90.00,180.00,-45.00,OPEN,0
653921.713,3,0,0,1.000,1.000,1.000,-90.00,180.00,-45.00,OPEN,0
653921.762,3,0,0,1.000,1.000,1.000,-90.00,180.00,-45.00,OPEN,0
653921.817,3,0,0,1.000,1.000,1.000,-90.00,180.00,-45.00,OPEN,0
653921.862,3,0,0,1.000,1.000,1.000,-90.00,180.00,-45.00,OPEN,0
653921.927,3,0,0,1.000,1.000,1.000,-90.00,180.00,-45.00,OPEN,0
653921.967,3,0,0,1.000,1.000,1.000,-90.00,180.00,-45.00,OPEN,0
653922.016,3,0,0,1.000,1.000,1.000,-90.00,180.00,-45.00,OPEN,0
653922.067,3,0,0,1.000,1.000,1.000,-90.00,180.00,-45.00,OPEN,0
653922.115,3,0,0,1.000,1.000,1.000,-90.00,180.00,-45.00,OPEN,0
653922.164,3,0,0,1.000,1.000,1.000,-90.00,180.00,-45.00,OPEN,0
653922.212,3,0,0,1.000,1.000,1.000,-90.00,180.00,-45.00,OPEN,0
653922.262,3,0,0,1.000,1.000,1.000,-90.00,180.00,-45.00,OPEN,0
653922.313,3,0,0,1.000,1.000,1.000,-90.00,180.00,-45.00,OPEN,0
653922.362,3,0,0,1.000,1.000,1.000,-90.00,180.00,-45.00,OPEN,0
653922.412,3,0,0,1.000,1.000,1.000,-90.00,180.00,-45.00,OPEN,0
653922.463,3,0,0,1.000,1.000,1.000,-90.00,180.00,-45.00,OPEN,0
653922.513,3,0,0,1.000,1.000,1.000,-90.00,180.00,-45.00,OPEN,0
653922.566,3,0,0,1.000,1.000,1.000,-90.00,180.00,-45.00,OPEN,0
653922.614,3,0,0,1.000,1.000,1.000,-90.00,180.00,-45.00,OPEN,0
653922.666,3,0,0,1.000,1.000,1.000,-90.00,180.00,-45.00,OPEN,0
653922.714,3,0,0,1.000,1.000,1.000,-90.00,180.00,-45.00,OPEN,0
653922.762,3,0,0,1.000,1.000,1.000,-90.00,180.00,-45.00,OPEN,0
653922.814,3,0,0,1.000,1.000,1.000,-90.00,180.00,-45.00,OPEN,0
653922.863,3,0,0,1.000,1.000,1.000,-90.00,180.00,-45.00,OPEN,0
653922.914,3,0,0,1.000,1.000,1.000,-90.00,180.00,-45.00,OPEN,0
653922.967,3,0,0,1.000,1.000,1.000,-90.00,180.00,-45.00,OPEN,0
653923.015,3,0,0,1.000,1.000,1.000,-90.00,180.00,-45.00,OPEN,0
653923.066,3,0,0,1.000,1.000,1.000,-90.00,180.00,-45.00,OPEN,0
653923.117,3,0,0,1.000,1.000,1.000,-90.00,180.00,-45.00,OPEN,0
653923.165,3,0,0,1.000,1.000,1.000,-90.00,180.00,-45.00,OPEN,0
653923.214,3,0,0,1.000,1.000,1.000,-90.00,180.00,-45.00,OPEN,0
653923.265,3,0,0,1.000,1.000,1.000,-90.00,180.00,-45.00,OPEN,0
653923.316,3,0,0,1.000,1.000,1.000,-90.00,180.00,-45.00,OPEN,0
653923.364,3,0,0,1.000,1.000,1.000,-90.00,180.00,-45.00,OPEN,0
653923.412,3,0,0,1.000,1.000,1.000,-90.00,180.00,-45.00,OPEN,0
653923.463,3,0,0,1.000,1.000,1.000,-90.00,180.00,-45.00,OPEN,0
653923.513,3,0,0,1.000,1.000,1.000,-90.00,180.00,-45.00,OPEN,0
653923.564,3,0,0,1.000,1.000,1.000,-90.00,180.00,-45.00,OPEN,0
653923.613,3,0,0,1.000,1.000,1.000,-90.00,180.00,-45.00,OPEN,0
653923.662,3,0,0,1.000,1.000,1.000,-90.00,180.00,-45.00,OPEN,0
653923.714,3,0,0,1.000,1.000,1.000,-90.00,180.00,-45.00,OPEN,0
653923.763,3,0,0,1.000,1.000,1.000,-90.00,180.00,-45.00,OPEN,0
653923.813,3,0,0,1.000,1.000,1.000,-90.00,180.00,-45.00,OPEN,0
653923.863,3,0,0,1.000,1.000,1.000,-90.00,180.00,-45.00,OPEN,0
653923.912,3,0,0,1.000,1.000,1.000,-90.00,180.00,-45.00,OPEN,0
653923.963,3,0,0,1.000,1.000,1.000,-90.00,180.00,-45.00,OPEN,0
653924.012,3,0,0,1.000,1.000,1.000,-90.00,180.00,-45.00,OPEN,0
653924.063,3,0,0,1.000,1.000,1.000,-90.00,180.00,-45.00,OPEN,0
653924.116,3,0,0,1.000,1.000,1.000,-90.00,180.00,-45.00,OPEN,0
653924.171,3,0,0,1.000,1.000,1.000,-90.00,180.00,-45.00,OPEN,0
653924.222,3,0,0,1.000,1.000,1.000,-90.00,180.00,-45.00,OPEN,0
653924.266,3,0,0,1.000,1.000,1.000,-90.00,180.00,-45.00,OPEN,0
653924.314,3,0,0,1.000,1.000,1.000,-90.00,180.00,-45.00,OPEN,0
653924.362,3,0,0,1.000,1.000,1.000,-90.00,180.00,-45.00,OPEN,0
653924.414,3,0,0,1.000,1.000,1.000,-90.00,180.00,-45.00,OPEN,0
653924.462,3,0,0,1.000,1.000,1.000,-90.00,180.00,-45.00,OPEN,0
653924.514,3,0,0,1.000,1.000,1.000,-90.00,180.00,-45.00,OPEN,0
653924.563,3,0,0,1.000,1.000,1.000,-90.00,180.00,-45.00,OPEN,0
653924.613,3,0,0,1.000,1.000,1.000,-90.00,180.00,-45.00,OPEN,0
653924.663,3,0,0,1.000,1.000,1.000,-90.00,180.00,-45.00,OPEN,0
653924.712,3,0,0,1.000,1.000,1.000,-90.00,180.00,-45.00,OPEN,0
653924.763,3,0,0,1.000,1.000,1.000,-90.00,180.00,-45.00,OPEN,0
653924.813,3,0,0,1.000,1.000,1.000,-90.00,180.00,-45.00,OPEN,0
653924.862,3,0,0,1.000,1.000,1.000,-90.00,180.00,-45.00,OPEN,0
653924.913,3,0,0,1.000,1.000,1.000,-90.00,180.00,-45.00,OPEN,0
653924.962,3,0,0,1.000,1.000,1.000,-90.00,180.00,-45.00,OPEN,0
653925.012,3,0,0,1.000,1.000,1.000,-90.00,180.00,-45.00,OPEN,0
653925.062,3,0,0,1.000,1.000,1.000,-90.00,180.00,-45.00,OPEN,0
653925.113,3,0,0,1.000,1.000,1.000,-90.00,180.00,-45.00,OPEN,0
653925.163,3,0,0,1.000,1.000,1.000,-90.00,180.00,-45.00,OPEN,0
653925.212,3,0,0,1.000,1.000,1.000,-90.00,180.00,-45.00,OPEN,0
653925.262,3,0,0,1.000,1.000,1.000,-90.00,180.00,-45.00,OPEN,0
653925.312,3,0,0,1.000,1.000,1.000,-90.00,180.00,-45.00,OPEN,0
653925.362,3,0,0,1.000,1.000,1.000,-90.00,180.00,-45.00,OPEN,0
653925.412,3,0,0,1.000,1.000,1.000,-90.00,180.00,-45.00,OPEN,0
653925.462,3,0,0,1.000,1.000,1.000,-90.00,180.00,-45.00,OPEN,0
653925.514,3,0,0,1.000,1.000,1.000,-90.00,180.00,-45.00,OPEN,0
653925.564,3,0,0,1.000,1.000,1.000,-90.00,180.00,-45.00,OPEN,0
653925.612,3,0,0,1.000,1.000,1.000,-90.00,180.00,-45.00,OPEN,0
653925.662,3,0,0,1.000,1.000,1.000,-90.00,180.00,-45.00,OPEN,0
653925.713,3,0,0,1.000,1.000,1.000,-90.00,180.00,-45.00,OPEN,0
653925.763,3,0,0,1.000,1.000,1.000,-90.00,180.00,-45.00,OPEN,0
653925.813,3,0,0,1.000,1.000,1.000,-90.00,180.00,-45.00,OPEN,0
653925.863,3,0,0,0.999,1.000,1.000,-90.00,180.00,-45.00,OPEN,0
653925.912,3,0,0,0.975,1.000,1.000,-90.00,180.00,-45.00,OPEN,0
653925.962,3,0,0,0.869,1.000,1.000,-90.00,180.00,-45.00,OPEN,0
653926.013,3,0,0,0.666,1.000,1.000,-90.00,180.00,-45.00,OPEN,0
653926.062,3,0,0,0.511,1.000,1.000,-90.00,180.00,-45.00,OPEN,0
653926.112,3,0,0,0.589,1.000,1.000,-90.00,180.00,-45.00,OPEN,0
653926.163,3,0,0,0.639,1.000,1.000,-90.00,180.00,-45.00,OPEN,0
653926.212,3,0,0,0.562,1.000,1.000,-90.00,180.00,-45.00,OPEN,0
653926.262,3,0,0,0.920,1.000,1.000,-90.00,180.00,-45.00,OPEN,0
653926.312,3,0,0,1.000,1.000,1.000,-90.00,180.00,-45.00,OPEN,0
653926.363,3,0,0,1.000,1.000,1.000,-90.00,180.00,-45.00,OPEN,0
653926.413,3,0,0,1.000,1.000,1.000,-90.00,180.00,-45.00,OPEN,0
653926.462,3,0,0,1.000,1.000,1.000,-90.00,180.00,-45.00,OPEN,0
653926.512,3,0,0,1.000,1.000,1.000,-90.00,180.00,-45.00,OPEN,0
653926.562,3,0,0,1.000,1.000,1.000,-90.00,180.00,-45.00,OPEN,0
653926.612,0,0,0,1.000,1.000,1.000,-90.00,180.00,-45.00,OPEN,0
653926.663,0,0,0,1.000,1.000,1.000,-90.00,180.00,-45.00,OPEN,0
653926.712,0,0,0,1.000,1.000,1.000,-90.00,180.00,-45.00,OPEN,0
653926.763,0,0,0,1.000,1.000,1.000,-90.00,180.00,-45.00,OPEN,0
653926.813,0,0,0,1.000,1.000,1.000,-90.00,180.00,-45.00,OPEN,0
653926.865,0,0,0,1.000,1.000,1.000,-90.00,180.00,-45.00,OPEN,0
653926.912,0,0,0,1.000,1.000,1.000,-90.00,180.00,-45.00,OPEN,0
653926.962,0,0,0,1.000,1.000,1.000,-90.00,180.00,-45.00,OPEN,0
653927.013,0,0,0,1.000,1.000,1.000,-90.00,180.00,-45.00,OPEN,0
653927.062,0,0,0,1.000,1.000,1.000,-90.00,180.00,-45.00,OPEN,0
653927.113,0,0,0,1.000,1.000,1.000,-90.00,180.00,-45.00,OPEN,0
653927.162,0,0,0,1.000,1.000,1.000,-90.00,180.00,-45.00,OPEN,0
653927.213,0,0,0,1.000,1.000,1.000,-90.00,180.00,-45.00,OPEN,0
653927.262,0,0,0,1.000,1.000,1.000,-90.00,180.00,-45.00,OPEN,0
653927.313,0,0,0,1.000,1.000,1.000,-90.00,180.00,-45.00,OPEN,0
653927.362,0,0,0,1.000,1.000,1.000,-90.00,180.00,-45.00,OPEN,0
653927.413,0,0,0,1.000,1.000,1.000,-90.00,180.00,-45.00,OPEN,0
653927.463,0,0,0,1.000,1.000,1.000,-90.00,180.00,-45.00,OPEN,0
653927.513,0,0,0,1.000,1.000,1.000,-90.00,180.00,-45.00,OPEN,0
653927.564,0,0,0,1.000,1.000,1.000,-90.00,180.00,-45.00,OPEN,0
653927.613,0,0,0,0.999,1.000,1.000,-90.00,180.00,-45.00,OPEN,0
653927.663,0,0,0,1.000,1.000,1.000,-90.00,180.00,-45.00,OPEN,0
653927.713,0,0,0,1.000,1.000,1.000,-90.00,180.00,-45.00,OPEN,0
653927.763,0,0,0,1.000,1.000,1.000,-90.00,180.00,-45.00,OPEN,0
653927.813,0,0,0,1.000,1.000,1.000,-90.00,180.00,-45.00,OPEN,0
653927.863,0,0,0,1.000,1.000,1.000,-90.00,180.00,-45.00,OPEN,0
653927.913,0,0,0,1.000,1.000,1.000,-90.00,180.00,-45.00,OPEN,0
653927.962,0,0,0,1.000,1.000,1.000,-90.00,180.00,-45.00,OPEN,0
653928.019,0,0,0,1.000,1.000,1.000,-90.00,180.00,-45.00,OPEN,0
653928.062,0,0,0,1.000,1.000,1.000,-90.00,180.00,-45.00,OPEN,0
653928.112,0,0,0,1.000,1.000,1.000,-90.00,180.00,-45.00,OPEN,0
653928.162,0,0,0,1.000,1.000,1.000,-90.00,180.00,-45.00,OPEN,0
653928.213,0,0,0,1.000,1.000,1.000,-90.00,180.00,-45.00,OPEN,0
653928.262,0,0,0,1.000,1.000,1.000,-90.00,180.00,-45.00,OPEN,0
653928.312,0,0,0,1.000,1.000,1.000,-90.00,180.00,-45.00,OPEN,0
653928.363,0,0,0,1.000,1.000,1.000,-90.00,180.00,-45.00,OPEN,0
653928.412,0,0,0,1.000,1.000,1.000,-90.00,180.00,-45.00,OPEN,0
653928.462,0,0,0,1.000,1.000,1.000,-90.00,180.00,-45.00,OPEN,0
653928.512,0,0,0,1.000,1.000,1.000,-90.00,180.00,-45.00,OPEN,0
653928.573,0,0,0,1.000,1.000,1.000,-90.00,180.00,-45.00,OPEN,0
653928.615,0,0,0,1.000,1.000,1.000,-90.00,180.00,-45.00,OPEN,0
653928.663,0,0,0,1.000,1.000,1.000,-90.00,180.00,-45.00,OPEN,0
653928.712,0,0,0,1.000,1.000,1.000,-90.00,180.00,-45.00,OPEN,0
653928.762,0,0,0,1.000,1.000,1.000,-90.00,180.00,-45.00,OPEN,0
653928.812,0,0,0,1.000,1.000,1.000,-90.00,180.00,-45.00,OPEN,0
653928.862,0,0,0,1.000,1.000,1.000,-90.00,180.00,-45.00,OPEN,0
653928.913,0,0,0,1.000,1.000,1.000,-90.00,180.00,-45.00,OPEN,0
653928.963,0,0,0,1.000,1.000,1.000,-90.00,180.00,-45.00,OPEN,0
653929.014,0,0,0,1.000,1.000,1.000,-90.00,180.00,-45.00,OPEN,0
653929.062,0,0,0,1.000,1.000,1.000,-90.00,180.00,-45.00,OPEN,0
653929.112,0,0,0,1.000,1.000,1.000,-90.00,180.00,-45.00,OPEN,0
653929.163,0,0,0,1.000,1.000,1.000,-90.00,180.00,-45.00,OPEN,0
653929.213,0,0,0,1.000,1.000,1.000,-90.00,180.00,-45.00,OPEN,0
653929.263,0,0,0,1.000,1.000,1.000,-90.00,180.00,-45.00,OPEN,0
653929.312,0,0,0,1.000,1.000,1.000,-90.00,180.00,-45.00,OPEN,0
653929.362,0,0,0,1.000,1.000,1.000,-90.00,180.00,-45.00,OPEN,0
653929.412,0,0,0,1.000,1.000,1.000,-90.00,180.00,-45.00,OPEN,0
653929.462,0,0,0,1.000,1.000,1.000,-90.00,180.00,-45.00,OPEN,0
653929.512,0,0,0,1.000,1.000,1.000,-90.00,180.00,-45.00,OPEN,0
653929.562,0,0,0,1.000,1.000,1.000,-90.00,180.00,-45.00,OPEN,0
653929.612,0,0,0,1.000,1.000,1.000,-90.00,180.00,-45.00,OPEN,0
653929.662,0,0,0,1.000,1.000,1.000,-90.00,180.00,-45.00,OPEN,0
653929.712,0,0,0,1.000,1.000,1.000,-90.00,180.00,-45.00,OPEN,0
653929.762,0,0,0,1.000,1.000,1.000,-90.00,180.00,-45.00,OPEN,0
653929.812,0,0,0,1.000,1.000,1.000,-90.00,180.00,-45.00,OPEN,0
653929.863,0,0,0,1.000,1.000,1.000,-90.00,180.00,-45.00,OPEN,0
653929.912,0,0,0,1.000,1.000,1.000,-90.00,180.00,-45.00,OPEN,0
653929.963,0,0,0,1.000,1.000,1.000,-90.00,180.00,-45.00,OPEN,0
653930.012,0,0,0,1.000,1.000,1.000,-90.00,180.00,-45.00,OPEN,0
653930.063,0,0,0,1.000,1.000,1.000,-90.00,180.00,-45.00,OPEN,0
653930.113,0,0,0,1.000,1.000,1.000,-90.00,180.00,-45.00,OPEN,0
653930.162,0,0,0,1.000,1.000,1.000,-90.00,180.00,-45.00,OPEN,0
653930.212,0,0,0,1.000,1.000,1.000,-90.00,180.00,-45.00,OPEN,0
653930.262,0,0,0,1.000,1.000,1.000,-90.00,180.00,-45.00,OPEN,0
653930.312,0,0,0,1.000,1.000,1.000,-90.00,180.00,-45.00,OPEN,0
653930.362,0,0,0,1.000,1.000,1.000,-90.00,180.00,-45.00,OPEN,0
653930.412,0,0,0,1.000,1.000,1.000,-90.00,180.00,-45.00,OPEN,0
653930.462,0,0,0,1.000,1.000,1.000,-90.00,180.00,-45.00,OPEN,0
653930.512,0,0,0,1.000,1.000,1.000,-90.00,180.00,-45.00,OPEN,0
653930.562,0,0,0,1.000,1.000,1.000,-90.00,180.00,-45.00,OPEN,0
653930.612,0,0,0,1.000,1.000,1.000,-90.00,180.00,-45.00,OPEN,0
653930.662,0,0,0,1.000,1.000,1.000,-90.00,180.00,-45.00,OPEN,0
653930.712,0,0,0,1.000,1.000,1.000,-90.00,180.00,-45.00,OPEN,0
653930.763,0,0,0,1.000,1.000,1.000,-90.00,180.00,-45.00,OPEN,0
653930.812,0,0,0,1.000,1.000,1.000,-90.00,180.00,-45.00,OPEN,0
653930.862,0,0,0,1.000,1.000,1.000,-90.00,180.00,-45.00,OPEN,0
653930.913,0,0,0,1.000,1.000,1.000,-90.00,180.00,-45.00,OPEN,0
653930.962,0,0,0,1.000,1.000,1.000,-90.00,180.00,-45.00,OPEN,0
653931.012,0,0,0,1.000,1.000,1.000,-90.00,180.00,-45.00,OPEN,0
653931.062,0,0,0,1.000,1.000,1.000,-90.00,180.00,-45.00,OPEN,0
653931.113,0,0,0,1.000,1.000,1.000,-90.00,180.00,-45.00,OPEN,0
653931.162,0,0,0,1.000,1.000,1.000,-90.00,180.00,-45.00,OPEN,0
653931.212,0,0,0,1.000,1.000,1.000,-90.00,180.00,-45.00,OPEN,0
653931.262,0,0,0,1.000,1.000,1.000,-90.00,180.00,-45.00,OPEN,0
653931.312,0,0,0,1.000,1.000,1.000,-90.00,180.00,-45.00,OPEN,0
653931.362,0,0,0,1.000,1.000,1.000,-90.00,180.00,-45.00,OPEN,0
653931.412,0,0,0,1.000,1.000,1.000,-90.00,180.00,-45.00,OPEN,0
653931.462,0,0,0,1.000,1.000,1.000,-90.00,180.00,-45.00,OPEN,0
653931.512,0,0,0,1.000,1.000,1.000,-90.00,180.00,-45.00,OPEN,0
653931.563,0,0,0,1.000,1.000,1.000,-90.00,180.00,-45.00,OPEN,0
653931.612,0,0,0,1.000,1.000,1.000,-90.00,180.00,-45.00,OPEN,0
653931.662,0,0,0,1.000,1.000,1.000,-90.00,180.00,-45.00,OPEN,0
653931.712,0,0,0,1.000,1.000,1.000,-90.00,180.00,-45.00,OPEN,0
653931.763,0,0,0,1.000,1.000,1.000,-90.00,180.00,-45.00,OPEN,0
653931.813,0,0,0,1.000,1.000,1.000,-90.00,180.00,-45.00,OPEN,0
