t,hand,elbow,shoulder,p_hand,p_elbow,p_shoulder,J2,J3,J6,grip_state,cmd_sent
671107.498,0,0,0,1.000,0.999,1.000,-90.00,180.00,0.00,OPEN,0
671107.525,0,0,0,1.000,1.000,1.000,-90.00,180.00,0.00,OPEN,0
671107.534,0,0,0,1.000,0.999,1.000,-90.00,180.00,0.00,OPEN,0
671107.542,0,0,0,1.000,0.999,1.000,-90.00,180.00,0.00,OPEN,0
671107.554,0,0,0,1.000,1.000,1.000,-90.00,180.00,0.00,OPEN,0
671107.562,0,0,0,1.000,1.000,1.000,-90.00,180.00,0.00,OPEN,0
671107.570,0,0,0,1.000,1.000,1.000,-90.00,180.00,0.00,OPEN,0
671107.578,0,0,0,1.000,1.000,1.000,-90.00,180.00,0.00,OPEN,0
671107.583,0,0,0,1.000,1.000,1.000,-90.00,180.00,0.00,OPEN,0
671107.592,0,0,0,1.000,0.977,1.000,-90.00,180.00,0.00,OPEN,0
671107.596,0,0,0,1.000,0.618,1.000,-90.00,180.00,0.00,OPEN,0
671107.600,0,0,0,1.000,0.634,1.000,-90.00,180.00,0.00,OPEN,0
671107.606,0,0,0,1.000,0.788,1.000,-90.00,180.00,0.00,OPEN,0
671107.610,0,0,0,1.000,0.983,1.000,-90.00,180.00,0.00,OPEN,0
671107.614,0,0,0,1.000,0.921,1.000,-90.00,180.00,0.00,OPEN,0
671107.619,0,0,0,1.000,0.850,1.000,-90.00,180.00,0.00,OPEN,0
671107.627,0,0,0,1.000,0.883,1.000,-90.00,180.00,0.00,OPEN,0
671107.631,0,0,0,1.000,0.609,1.000,-90.00,180.00,0.00,OPEN,0
671107.635,0,0,0,1.000,0.994,1.000,-90.00,180.00,0.00,OPEN,0
671107.639,0,0,0,1.000,1.000,1.000,-90.00,180.00,0.00,OPEN,0
671107.643,0,0,0,1.000,1.000,1.000,-90.00,180.00,0.00,OPEN,0
671107.646,0,0,0,1.000,1.000,1.000,-90.00,180.00,0.00,OPEN,0
671107.650,0,0,0,1.000,1.000,1.000,-90.00,180.00,0.00,OPEN,0
671107.654,0,0,0,1.000,1.000,1.000,-90.00,180.00,0.00,OPEN,0
671107.658,0,0,0,1.000,1.000,1.000,-90.00,180.00,0.00,OPEN,0
671107.663,0,0,0,1.000,1.000,1.000,-90.00,180.00,0.00,OPEN,0
671107.668,0,0,0,1.000,1.000,1.000,-90.00,180.00,0.00,OPEN,0
671107.672,0,0,0,1.000,1.000,1.000,-90.00,180.00,0.00,OPEN,0
671107.676,0,0,0,1.000,1.000,1.000,-90.00,180.00,0.00,OPEN,0
671107.685,0,0,0,1.000,1.000,1.000,-90.00,180.00,0.00,OPEN,0
671107.694,0,0,0,1.000,0.989,1.000,-90.00,180.00,0.00,OPEN,0
671107.697,0,0,0,1.000,0.997,1.000,-90.00,180.00,0.00,OPEN,0
671107.702,0,0,0,1.000,1.000,1.000,-90.00,180.00,0.00,OPEN,0
671107.706,0,0,0,1.000,1.000,1.000,-90.00,180.00,0.00,OPEN,0
671107.712,0,0,0,0.999,0.999,1.000,-90.00,180.00,0.00,OPEN,0
671107.716,0,0,0,0.999,0.838,1.000,-90.00,180.00,0.00,OPEN,0
671107.720,0,0,0,0.993,1.000,1.000,-90.00,180.00,0.00,OPEN,0
671107.724,0,0,0,0.981,1.000,1.000,-90.00,180.00,0.00,OPEN,0
671107.728,0,0,0,0.991,1.000,1.000,-90.00,180.00,0.00,OPEN,0
671107.735,0,0,0,0.996,1.000,1.000,-90.00,180.00,0.00,OPEN,0
671107.739,0,0,0,0.999,1.000,1.000,-90.00,180.00,0.00,OPEN,0
671107.744,0,0,0,1.000,1.000,1.000,-90.00,180.00,0.00,OPEN,0
671107.748,0,0,0,1.000,1.000,1.000,-90.00,180.00,0.00,OPEN,0
671107.755,0,0,0,1.000,1.000,1.000,-90.00,180.00,0.00,OPEN,0
671107.764,0,0,0,1.000,1.000,1.000,-90.00,180.00,0.00,OPEN,0
671107.769,0,0,0,1.000,1.000,1.000,-90.00,180.00,0.00,OPEN,0
671107.773,0,0,0,0.998,1.000,1.000,-90.00,180.00,0.00,OPEN,0
671107.778,0,0,0,0.993,0.999,1.000,-90.00,180.00,0.00,OPEN,0
671107.782,0,0,0,1.000,1.000,1.000,-90.00,180.00,0.00,OPEN,0
671107.786,0,0,0,1.000,1.000,1.000,-90.00,180.00,0.00,OPEN,0
671107.791,0,0,0,0.994,1.000,1.000,-90.00,180.00,0.00,OPEN,0
671107.795,0,0,0,0.993,1.000,1.000,-90.00,180.00,0.00,OPEN,0
671107.800,0,0,0,0.997,1.000,1.000,-90.00,180.00,0.00,OPEN,0
671107.806,0,0,0,0.999,1.000,1.000,-90.00,180.00,0.00,OPEN,0
671107.811,0,0,0,1.000,1.000,1.000,-90.00,180.00,0.00,OPEN,0
671107.816,0,0,0,1.000,1.000,1.000,-90.00,180.00,0.00,OPEN,0
671107.821,0,0,0,1.000,1.000,1.000,-90.00,180.00,0.00,OPEN,0
671107.826,0,0,0,1.000,1.000,1.000,-90.00,180.00,0.00,OPEN,0
671107.830,0,0,0,1.000,1.000,1.000,-90.00,180.00,0.00,OPEN,0
671107.837,0,0,0,1.000,1.000,1.000,-90.00,180.00,0.00,OPEN,0
671107.842,0,0,0,1.000,1.000,1.000,-90.00,180.00,0.00,OPEN,0
671107.847,0,0,0,1.000,1.000,1.000,-90.00,180.00,0.00,OPEN,0
671107.855,0,0,0,1.000,1.000,1.000,-90.00,180.00,0.00,OPEN,0
671107.862,0,0,0,1.000,1.000,1.000,-90.00,180.00,0.00,OPEN,0
671107.867,0,0,0,1.000,1.000,1.000,-90.00,180.00,0.00,OPEN,0
671107.872,0,0,0,1.000,1.000,1.000,-90.00,180.00,0.00,OPEN,0
671107.876,0,0,0,1.000,1.000,1.000,-90.00,180.00,0.00,OPEN,0
671107.880,0,0,0,1.000,1.000,1.000,-90.00,180.00,0.00,OPEN,0
671107.885,0,0,0,1.000,1.000,1.000,-90.00,180.00,0.00,OPEN,0
671107.893,0,0,0,1.000,1.000,1.000,-90.00,180.00,0.00,OPEN,0
671107.904,0,0,0,0.999,1.000,1.000,-90.00,180.00,0.00,OPEN,0
671107.914,0,0,0,0.946,1.000,1.000,-90.00,180.00,0.00,OPEN,0
671107.925,0,0,0,0.598,1.000,1.000,-90.00,180.00,0.00,OPEN,0
671107.941,0,0,0,0.899,1.000,1.000,-90.00,180.00,0.00,OPEN,0
671107.955,0,0,0,0.987,1.000,1.000,-90.00,180.00,0.00,OPEN,0
671107.963,0,0,0,0.997,0.996,1.000,-90.00,180.00,0.00,OPEN,0
671107.972,0,0,0,0.999,0.589,1.000,-90.00,180.00,0.00,OPEN,0
671107.980,0,0,0,0.999,0.964,1.000,-90.00,180.00,0.00,OPEN,0
671107.989,0,0,0,1.000,0.974,1.000,-90.00,180.00,0.00,OPEN,0
671107.997,0,0,0,1.000,0.891,1.000,-90.00,180.00,0.00,OPEN,0
671108.002,0,0,0,1.000,0.628,1.000,-90.00,180.00,0.00,OPEN,0
671108.006,0,0,0,0.999,0.660,1.000,-90.00,180.00,0.00,OPEN,0
671108.010,0,0,0,0.983,0.814,1.000,-90.00,180.00,0.00,OPEN,0
671108.015,0,0,0,0.690,0.920,1.000,-90.00,180.00,0.00,OPEN,0
671108.021,0,0,0,0.608,0.974,1.000,-90.00,180.00,0.00,OPEN,0
671108.025,0,0,0,1.000,0.995,1.000,-90.00,180.00,0.00,OPEN,0
671108.029,0,0,0,0.999,0.997,1.000,-90.00,180.00,0.00,OPEN,0
671108.033,0,0,0,0.995,0.999,1.000,-90.00,180.00,0.00,OPEN,0
671108.042,0,0,0,0.996,0.999,1.000,-90.00,180.00,0.00,OPEN,0
671108.045,0,0,0,0.999,0.998,1.000,-90.00,180.00,0.00,OPEN,0
671108.050,0,0,0,1.000,0.995,1.000,-90.00,180.00,0.00,OPEN,0
671108.054,0,0,0,1.000,0.994,1.000,-90.00,180.00,0.00,OPEN,0
671108.062,0,0,0,1.000,0.997,1.000,-90.00,180.00,0.00,OPEN,0
671108.066,0,0,0,1.000,1.000,1.000,-90.00,180.00,0.00,OPEN,0
671108.070,0,0,0,1.000,1.000,1.000,-90.00,180.00,0.00,OPEN,0
671108.075,0,0,0,1.000,1.000,1.000,-90.00,180.00,0.00,OPEN,0
671108.079,0,0,0,1.000,0.999,1.000,-90.00,180.00,0.00,OPEN,0
671108.083,0,0,0,1.000,0.999,1.000,-90.00,180.00,0.00,OPEN,0
671108.088,0,0,0,1.000,0.999,1.000,-90.00,180.00,0.00,OPEN,0
671108.092,0,0,0,1.000,1.000,1.000,-90.00,180.00,0.00,OPEN,0
671108.096,0,0,0,1.000,0.999,1.000,-90.00,180.00,0.00,OPEN,0
671108.103,0,0,0,1.000,1.000,1.000,-90.00,180.00,0.00,OPEN,0
671108.107,0,0,0,1.000,0.959,1.000,-90.00,180.00,0.00,OPEN,0
671108.111,0,0,0,1.000,0.805,1.000,-90.00,180.00,0.00,OPEN,0
671108.115,0,0,0,1.000,0.804,1.000,-90.00,180.00,0.00,OPEN,0
671108.120,0,0,0,1.000,0.750,1.000,-90.00,180.00,0.00,OPEN,0
671108.124,0,0,0,1.000,0.804,1.000,-90.00,180.00,0.00,OPEN,0
671108.129,0,0,0,1.000,0.968,1.000,-90.00,180.00,0.00,OPEN,0
671108.133,0,0,0,1.000,0.976,1.000,-90.00,180.00,0.00,OPEN,0
671108.137,0,0,0,1.000,0.981,1.000,-90.00,180.00,0.00,OPEN,0
671108.141,0,0,0,1.000,0.998,1.000,-90.00,180.00,0.00,OPEN,0
671108.145,0,0,0,1.000,0.999,1.000,-90.00,180.00,0.00,OPEN,0
671108.149,0,0,0,1.000,1.000,1.000,-90.00,180.00,0.00,OPEN,0
671108.153,0,0,0,1.000,1.000,1.000,-90.00,180.00,0.00,OPEN,0
671108.157,0,0,0,1.000,1.000,1.000,-90.00,180.00,0.00,OPEN,0
671108.161,0,0,0,1.000,1.000,1.000,-90.00,180.00,0.00,OPEN,0
671108.165,0,0,0,1.000,1.000,1.000,-90.00,180.00,0.00,OPEN,0
671108.169,0,0,0,1.000,1.000,1.000,-90.00,180.00,0.00,OPEN,0
671108.173,0,0,0,1.000,1.000,1.000,-90.00,180.00,0.00,OPEN,0
671108.177,0,0,0,1.000,1.000,1.000,-90.00,180.00,0.00,OPEN,0
671108.182,0,0,0,1.000,1.000,1.000,-90.00,180.00,0.00,OPEN,0
671108.186,0,0,0,1.000,1.000,1.000,-90.00,180.00,0.00,OPEN,0
671108.190,0,0,0,1.000,1.000,1.000,-90.00,180.00,0.00,OPEN,0
671108.198,0,0,0,1.000,1.000,1.000,-90.00,180.00,0.00,OPEN,0
671108.202,0,0,0,1.000,1.000,1.000,-90.00,180.00,0.00,OPEN,0
671108.206,0,0,0,1.000,1.000,1.000,-90.00,180.00,0.00,OPEN,0
671108.210,0,0,0,1.000,1.000,1.000,-90.00,180.00,0.00,OPEN,0
671108.215,0,0,0,1.000,1.000,1.000,-90.00,180.00,0.00,OPEN,0
671108.219,0,0,0,1.000,1.000,1.000,-90.00,180.00,0.00,OPEN,0
671108.224,0,0,0,1.000,1.000,1.000,-90.00,180.00,0.00,OPEN,0
671108.231,0,0,0,1.000,1.000,1.000,-90.00,180.00,0.00,OPEN,0
671108.235,0,0,0,1.000,1.000,1.000,-90.00,180.00,0.00,OPEN,0
671108.240,0,0,0,1.000,1.000,1.000,-90.00,180.00,0.00,OPEN,0
671108.244,0,0,0,1.000,1.000,1.000,-90.00,180.00,0.00,OPEN,0
671108.250,0,0,0,1.000,1.000,1.000,-90.00,180.00,0.00,OPEN,0
671108.254,0,0,0,1.000,1.000,1.000,-90.00,180.00,0.00,OPEN,0
671108.258,0,0,0,1.000,1.000,1.000,-90.00,180.00,0.00,OPEN,0
671108.263,0,0,0,1.000,1.000,1.000,-90.00,180.00,0.00,OPEN,0
671108.267,0,0,0,1.000,1.000,1.000,-90.00,180.00,0.00,OPEN,0
671108.271,0,0,0,1.000,1.000,1.000,-90.00,180.00,0.00,OPEN,0
671108.275,0,0,0,1.000,1.000,1.000,-90.00,180.00,0.00,OPEN,0
671108.279,0,0,0,1.000,1.000,1.000,-90.00,180.00,0.00,OPEN,0
671108.284,0,0,0,1.000,1.000,1.000,-90.00,180.00,0.00,OPEN,0
671108.292,0,0,0,1.000,1.000,1.000,-90.00,180.00,0.00,OPEN,0
671108.297,0,0,0,1.000,1.000,1.000,-90.00,180.00,0.00,OPEN,0
671108.301,0,0,0,1.000,1.000,1.000,-90.00,180.00,0.00,OPEN,0
671108.305,0,0,0,1.000,1.000,1.000,-90.00,180.00,0.00,OPEN,0
671108.309,0,0,0,1.000,1.000,1.000,-90.00,180.00,0.00,OPEN,0
671108.313,0,0,0,1.000,1.000,1.000,-90.00,180.00,0.00,OPEN,0
671108.317,0,0,0,1.000,0.999,1.000,-90.00,180.00,0.00,OPEN,0
671108.322,0,0,0,1.000,0.999,1.000,-90.00,180.00,0.00,OPEN,0
671108.327,0,0,0,1.000,0.999,1.000,-90.00,180.00,0.00,OPEN,0
671108.331,0,0,0,1.000,0.999,1.000,-90.00,180.00,0.00,OPEN,0
671108.335,0,0,0,1.000,0.999,1.000,-90.00,180.00,0.00,OPEN,0
671108.346,0,0,0,1.000,1.000,1.000,-90.00,180.00,0.00,OPEN,0
671108.350,0,0,0,1.000,0.999,1.000,-90.00,180.00,0.00,OPEN,0
671108.355,0,0,0,1.000,1.000,1.000,-90.00,180.00,0.00,OPEN,0
671108.359,0,0,0,1.000,1.000,1.000,-90.00,180.00,0.00,OPEN,0
671108.362,0,0,0,1.000,1.000,1.000,-90.00,180.00,0.00,OPEN,0
671108.366,0,0,0,1.000,1.000,1.000,-90.00,180.00,0.00,OPEN,0
671108.372,0,0,0,1.000,1.000,1.000,-90.00,180.00,0.00,OPEN,0
671108.376,0,0,0,1.000,1.000,1.000,-90.00,180.00,0.00,OPEN,0
671108.380,0,0,0,1.000,1.000,1.000,-90.00,180.00,0.00,OPEN,0
671108.384,0,0,0,1.000,1.000,1.000,-90.00,180.00,0.00,OPEN,0
671108.391,0,0,0,1.000,1.000,1.000,-90.00,180.00,0.00,OPEN,0
671108.395,0,0,0,1.000,0.999,1.000,-90.00,180.00,0.00,OPEN,0
671108.400,0,0,0,1.000,0.999,1.000,-90.00,180.00,0.00,OPEN,0
671108.405,0,0,0,1.000,0.999,1.000,-90.00,180.00,0.00,OPEN,0
671108.409,0,0,0,1.000,0.997,1.000,-90.00,180.00,0.00,OPEN,0
671108.413,0,0,0,1.000,0.998,1.000,-90.00,180.00,0.00,OPEN,0
671108.420,0,0,0,1.000,1.000,1.000,-90.00,180.00,0.00,OPEN,0
671108.424,0,0,0,1.000,1.000,1.000,-90.00,180.00,0.00,OPEN,0
671108.429,0,0,0,1.000,1.000,1.000,-90.00,180.00,0.00,OPEN,0
671108.436,0,0,0,1.000,1.000,1.000,-90.00,180.00,0.00,OPEN,0
671108.440,0,0,0,1.000,1.000,1.000,-90.00,180.00,0.00,OPEN,0
671108.444,0,0,0,1.000,1.000,1.000,-90.00,180.00,0.00,OPEN,0
671108.448,0,0,0,1.000,1.000,1.000,-90.00,180.00,0.00,OPEN,0
671108.452,0,0,0,1.000,1.000,1.000,-90.00,180.00,0.00,OPEN,0
671108.456,0,0,0,1.000,1.000,1.000,-90.00,180.00,0.00,OPEN,0
671108.461,0,0,0,1.000,1.000,1.000,-90.00,180.00,0.00,OPEN,0
671108.465,0,0,0,1.000,1.000,1.000,-90.00,180.00,0.00,OPEN,0
671108.469,0,0,0,1.000,1.000,1.000,-90.00,180.00,0.00,OPEN,0
671108.473,0,0,0,1.000,0.999,1.000,-90.00,180.00,0.00,OPEN,0
671108.476,0,0,0,1.000,0.999,1.000,-90.00,180.00,0.00,OPEN,0
671108.480,0,0,0,1.000,0.998,1.000,-90.00,180.00,0.00,OPEN,0
671108.484,0,0,0,1.000,0.997,1.000,-90.00,180.00,0.00,OPEN,0
671108.488,0,0,0,1.000,0.994,1.000,-90.00,180.00,0.00,OPEN,0
671108.493,0,0,0,1.000,0.998,1.000,-90.00,180.00,0.00,OPEN,0
671108.497,0,0,0,1.000,0.999,1.000,-90.00,180.00,0.00,OPEN,0
671108.501,0,0,0,1.000,1.000,1.000,-90.00,180.00,0.00,OPEN,0
671108.505,0,0,0,1.000,0.999,1.000,-90.00,180.00,0.00,OPEN,0
671108.514,0,0,0,1.000,0.999,1.000,-90.00,180.00,0.00,OPEN,0
671108.518,0,0,0,1.000,0.999,1.000,-90.00,180.00,0.00,OPEN,0
671108.522,0,0,0,1.000,0.999,1.000,-90.00,180.00,0.00,OPEN,0
671108.526,0,0,0,1.000,1.000,1.000,-90.00,180.00,0.00,OPEN,0
671108.531,0,0,0,1.000,1.000,1.000,-90.00,180.00,0.00,OPEN,0
671108.534,0,0,0,1.000,1.000,1.000,-90.00,180.00,0.00,OPEN,0
671108.539,0,0,0,1.000,1.000,1.000,-90.00,180.00,0.00,OPEN,0
671108.544,0,0,0,1.000,1.000,1.000,-90.00,180.00,0.00,OPEN,0
671108.548,0,0,0,1.000,1.000,1.000,-90.00,180.00,0.00,OPEN,0
671108.552,0,0,0,1.000,1.000,1.000,-90.00,180.00,0.00,OPEN,0
671108.561,0,0,0,1.000,1.000,1.000,-90.00,180.00,0.00,OPEN,0
671108.565,0,0,0,1.000,1.000,1.000,-90.00,180.00,0.00,OPEN,0
671108.570,0,0,0,1.000,1.000,1.000,-90.00,180.00,0.00,OPEN,0
671108.574,0,0,0,1.000,1.000,1.000,-90.00,180.00,0.00,OPEN,0
671108.579,0,0,0,1.000,1.000,1.000,-90.00,180.00,0.00,OPEN,0
671108.584,0,0,0,1.000,1.000,1.000,-90.00,180.00,0.00,OPEN,0
671108.588,0,0,0,1.000,1.000,1.000,-90.00,180.00,0.00,OPEN,0
671108.592,0,0,0,1.000,1.000,1.000,-90.00,180.00,0.00,OPEN,0
671108.596,0,0,0,1.000,1.000,1.000,-90.00,180.00,0.00,OPEN,0
671108.600,0,0,0,1.000,0.999,1.000,-90.00,180.00,0.00,OPEN,0
671108.607,0,0,0,1.000,1.000,1.000,-90.00,180.00,0.00,OPEN,0
671108.611,0,0,0,1.000,1.000,1.000,-90.00,180.00,0.00,OPEN,0
671108.617,0,0,0,1.000,1.000,1.000,-90.00,180.00,0.00,OPEN,0
671108.623,0,0,0,1.000,1.000,1.000,-90.00,180.00,0.00,OPEN,0
671108.628,0,0,0,1.000,1.000,1.000,-90.00,180.00,0.00,OPEN,0
671108.632,0,0,0,1.000,0.961,1.000,-90.00,180.00,0.00,OPEN,0
671108.639,0,0,0,1.000,0.770,1.000,-90.00,180.00,0.00,OPEN,0
671108.643,0,0,0,1.000,0.974,1.000,-90.00,180.00,0.00,OPEN,0
671108.647,0,0,0,1.000,0.985,1.000,-90.00,180.00,0.00,OPEN,0
671108.656,0,0,0,1.000,0.722,1.000,-90.00,180.00,0.00,OPEN,0
671108.661,0,0,0,1.000,0.994,1.000,-90.00,180.00,0.00,OPEN,0
671108.665,0,0,0,1.000,1.000,1.000,-90.00,180.00,0.00,OPEN,0
671108.670,0,0,0,1.000,0.999,1.000,-90.00,180.00,0.00,OPEN,0
671108.673,0,0,0,1.000,0.999,1.000,-90.00,180.00,0.00,OPEN,0
671108.677,0,0,0,1.000,0.999,1.000,-90.00,180.00,0.00,OPEN,0
671108.682,0,0,0,1.000,1.000,1.000,-90.00,180.00,0.00,OPEN,0
671108.686,0,0,0,1.000,0.999,1.000,-90.00,180.00,0.00,OPEN,0
671108.694,0,0,0,1.000,1.000,1.000,-90.00,180.00,0.00,OPEN,0
671108.701,0,0,0,1.000,1.000,1.000,-90.00,180.00,0.00,OPEN,0
671108.706,0,0,0,1.000,1.000,1.000,-90.00,180.00,0.00,OPEN,0
671108.710,0,0,0,1.000,1.000,1.000,-90.00,180.00,0.00,OPEN,0
671108.715,0,0,0,1.000,1.000,1.000,-90.00,180.00,0.00,OPEN,0
671108.719,0,0,0,1.000,1.000,1.000,-90.00,180.00,0.00,OPEN,0
671108.726,0,0,0,1.000,1.000,1.000,-90.00,180.00,0.00,OPEN,0
671108.735,0,0,0,1.000,1.000,1.000,-90.00,180.00,0.00,OPEN,0
671108.739,0,0,0,1.000,1.000,1.000,-90.00,180.00,0.00,OPEN,0
671108.743,0,0,0,1.000,1.000,1.000,-90.00,180.00,0.00,OPEN,0
671108.747,0,0,0,1.000,1.000,1.000,-90.00,180.00,0.00,OPEN,0
671108.751,0,0,0,1.000,1.000,1.000,-90.00,180.00,0.00,OPEN,0
671108.755,0,0,0,1.000,1.000,1.000,-90.00,180.00,0.00,OPEN,0
671108.761,0,0,0,1.000,1.000,1.000,-90.00,180.00,0.00,OPEN,0
671108.765,0,0,0,1.000,1.000,1.000,-90.00,180.00,0.00,OPEN,0
671108.770,0,0,0,1.000,1.000,1.000,-90.00,180.00,0.00,OPEN,0
671108.774,0,0,0,1.000,1.000,1.000,-90.00,180.00,0.00,OPEN,0
671108.778,0,0,0,1.000,1.000,1.000,-90.00,180.00,0.00,OPEN,0
671108.783,0,0,0,1.000,1.000,1.000,-90.00,180.00,0.00,OPEN,0
671108.788,0,0,0,1.000,1.000,1.000,-90.00,180.00,0.00,OPEN,0
671108.792,0,0,0,1.000,1.000,1.000,-90.00,180.00,0.00,OPEN,0
671108.797,0,0,0,1.000,1.000,1.000,-90.00,180.00,0.00,OPEN,0
671108.801,0,0,0,1.000,1.000,1.000,-90.00,180.00,0.00,OPEN,0
671108.806,0,0,0,1.000,1.000,1.000,-90.00,180.00,0.00,OPEN,0
671108.810,0,0,0,1.000,1.000,1.000,-90.00,180.00,0.00,OPEN,0
671108.814,0,0,0,1.000,1.000,1.000,-90.00,180.00,0.00,OPEN,0
671108.819,0,0,0,1.000,1.000,1.000,-90.00,180.00,0.00,OPEN,0
671108.823,0,0,0,1.000,1.000,1.000,-90.00,180.00,0.00,OPEN,0
671108.827,0,0,0,1.000,1.000,1.000,-90.00,180.00,0.00,OPEN,0
671108.831,0,0,0,1.000,1.000,1.000,-90.00,180.00,0.00,OPEN,0
671108.835,0,0,0,1.000,1.000,1.000,-90.00,180.00,0.00,OPEN,0
671108.840,0,0,0,1.000,1.000,1.000,-90.00,180.00,0.00,OPEN,0
671108.844,0,0,0,1.000,1.000,1.000,-90.00,180.00,0.00,OPEN,0
671108.848,0,0,0,1.000,1.000,1.000,-90.00,180.00,0.00,OPEN,0
671108.853,0,0,0,1.000,0.999,1.000,-90.00,180.00,0.00,OPEN,0
671108.858,0,0,0,1.000,1.000,1.000,-90.00,180.00,0.00,OPEN,0
671108.862,0,0,0,1.000,1.000,1.000,-90.00,180.00,0.00,OPEN,0
671108.866,0,0,0,1.000,1.000,1.000,-90.00,180.00,0.00,OPEN,0
671108.875,0,0,0,1.000,1.000,1.000,-90.00,180.00,0.00,OPEN,0
671108.879,0,0,0,1.000,1.000,1.000,-90.00,180.00,0.00,OPEN,0
671108.883,0,0,0,1.000,1.000,1.000,-90.00,180.00,0.00,OPEN,0
671108.887,0,0,0,1.000,1.000,1.000,-90.00,180.00,0.00,OPEN,0
671108.891,0,0,0,1.000,1.000,1.000,-90.00,180.00,0.00,OPEN,0
671108.895,0,0,0,1.000,1.000,1.000,-90.00,180.00,0.00,OPEN,0
671108.899,0,0,0,1.000,1.000,1.000,-90.00,180.00,0.00,OPEN,0
671108.907,0,0,0,1.000,1.000,1.000,-90.00,180.00,0.00,OPEN,0
671108.911,0,0,0,1.000,0.997,1.000,-90.00,180.00,0.00,OPEN,0
671108.916,0,0,0,1.000,1.000,1.000,-90.00,180.00,0.00,OPEN,0
671108.920,0,0,0,1.000,1.000,1.000,-90.00,180.00,0.00,OPEN,0
671108.923,0,0,0,0.999,1.000,1.000,-90.00,180.00,0.00,OPEN,0
671108.927,0,0,0,0.999,0.994,1.000,-90.00,180.00,0.00,OPEN,0
671108.931,0,0,0,1.000,0.996,1.000,-90.00,180.00,0.00,OPEN,0
671108.938,0,0,0,1.000,1.000,1.000,-90.00,180.00,0.00,OPEN,0
671108.941,0,0,0,1.000,1.000,1.000,-90.00,180.00,0.00,OPEN,0
671108.945,0,0,0,1.000,1.000,1.000,-90.00,180.00,0.00,OPEN,0
671108.950,0,0,0,1.000,1.000,1.000,-90.00,180.00,0.00,OPEN,0
671108.957,0,0,0,1.000,1.000,1.000,-90.00,180.00,0.00,OPEN,0
671108.962,0,0,0,1.000,1.000,1.000,-90.00,180.00,0.00,OPEN,0
671108.970,0,0,0,1.000,1.000,1.000,-90.00,180.00,0.00,OPEN,0
671108.974,0,0,0,1.000,1.000,1.000,-90.00,180.00,0.00,OPEN,0
671108.978,0,0,0,1.000,1.000,1.000,-90.00,180.00,0.00,OPEN,0
671108.982,0,0,0,1.000,1.000,1.000,-90.00,180.00,0.00,OPEN,0
671108.987,0,0,0,1.000,1.000,1.000,-90.00,180.00,0.00,OPEN,0
671108.991,0,0,0,1.000,1.000,1.000,-90.00,180.00,0.00,OPEN,0
671108.995,0,0,0,1.000,1.000,1.000,-90.00,180.00,0.00,OPEN,0
671108.999,0,0,0,1.000,1.000,1.000,-90.00,180.00,0.00,OPEN,0
671109.003,0,0,0,1.000,1.000,1.000,-90.00,180.00,0.00,OPEN,0
671109.008,0,0,0,1.000,1.000,1.000,-90.00,180.00,0.00,OPEN,0
671109.013,0,0,0,1.000,1.000,1.000,-90.00,180.00,0.00,OPEN,0
671109.017,0,0,0,1.000,1.000,1.000,-90.00,180.00,0.00,OPEN,0
671109.021,0,0,0,1.000,1.000,1.000,-90.00,180.00,0.00,OPEN,0
671109.025,0,0,0,1.000,1.000,1.000,-90.00,180.00,0.00,OPEN,0
671109.033,0,0,0,1.000,1.000,1.000,-90.00,180.00,0.00,OPEN,0
671109.038,0,0,0,1.000,0.997,1.000,-90.00,180.00,0.00,OPEN,0
671109.041,0,0,0,1.000,0.997,1.000,-90.00,180.00,0.00,OPEN,0
671109.045,0,0,0,1.000,0.972,1.000,-90.00,180.00,0.00,OPEN,0
671109.052,0,0,0,1.000,0.918,0.995,-90.00,180.00,0.00,OPEN,0
671109.060,0,0,0,1.000,0.771,0.997,-90.00,180.00,0.00,OPEN,0
671109.064,0,0,0,1.000,0.900,0.994,-90.00,180.00,0.00,OPEN,0
671109.068,0,0,0,1.000,0.866,0.994,-90.00,180.00,0.00,OPEN,0
671109.072,0,0,0,1.000,0.801,0.950,-90.00,180.00,0.00,OPEN,0
671109.075,0,0,0,1.000,0.895,0.973,-90.00,180.00,0.00,OPEN,0
671109.079,0,0,0,1.000,0.810,0.979,-90.00,180.00,0.00,OPEN,0
671109.083,0,0,0,1.000,0.893,0.928,-90.00,180.00,0.00,OPEN,0
671109.088,0,0,0,1.000,0.702,0.971,-90.00,180.00,0.00,OPEN,0
671109.092,0,0,0,1.000,0.810,0.946,-90.00,180.00,0.00,OPEN,0
671109.096,0,0,0,1.000,0.979,0.815,-90.00,180.00,0.00,OPEN,0
671109.100,0,0,0,1.000,0.634,0.762,-90.00,180.00,0.00,OPEN,0
671109.105,0,0,0,1.000,0.705,0.887,-90.00,180.00,0.00,OPEN,0
671109.109,0,0,0,1.000,0.748,0.906,-90.00,180.00,0.00,OPEN,0
671109.113,0,0,0,1.000,0.885,0.995,-90.00,180.00,0.00,OPEN,0
671109.117,0,0,0,1.000,0.999,1.000,-90.00,180.00,0.00,OPEN,0
671109.123,0,0,0,1.000,1.000,1.000,-90.00,180.00,0.00,OPEN,0
671109.128,0,0,0,1.000,1.000,1.000,-90.00,180.00,0.00,OPEN,0
671109.132,0,0,0,1.000,1.000,1.000,-90.00,180.00,0.00,OPEN,0
671109.136,0,0,0,1.000,1.000,1.000,-90.00,180.00,0.00,OPEN,0
671109.140,0,0,0,1.000,1.000,1.000,-90.00,180.00,0.00,OPEN,0
671109.144,0,0,0,1.000,1.000,1.000,-90.00,180.00,0.00,OPEN,0
671109.151,0,0,0,1.000,1.000,1.000,-90.00,180.00,0.00,OPEN,0
671109.155,0,0,0,1.000,1.000,1.000,-90.00,180.00,0.00,OPEN,0
671109.159,0,0,0,1.000,1.000,1.000,-90.00,180.00,0.00,OPEN,0
671109.162,0,0,0,1.000,1.000,1.000,-90.00,180.00,0.00,OPEN,0
671109.167,0,0,0,1.000,0.993,1.000,-90.00,180.00,0.00,OPEN,0
671109.172,0,0,0,1.000,0.998,1.000,-90.00,180.00,0.00,OPEN,0
671109.176,0,0,0,1.000,0.837,1.000,-90.00,180.00,0.00,OPEN,0
671109.180,0,0,0,1.000,0.721,1.000,-90.00,180.00,0.00,OPEN,0
671109.185,0,0,0,1.000,0.802,1.000,-90.00,180.00,0.00,OPEN,0
671109.188,0,0,0,1.000,0.736,0.999,-90.00,180.00,0.00,OPEN,0
671109.192,0,0,0,1.000,0.617,0.979,-90.00,180.00,0.00,OPEN,0
671109.196,0,0,0,1.000,0.660,0.789,-90.00,180.00,0.00,OPEN,0
