t,hand,elbow,shoulder,p_hand,p_elbow,p_shoulder,J2,J3,J6,grip_state,cmd_sent
654981.421,0,0,0,0.981,1.000,0.999,-90.00,180.00,0.00,OPEN,0
654981.440,0,0,0,0.997,1.000,0.999,-90.00,180.00,0.00,OPEN,0
654981.447,0,0,0,1.000,1.000,0.998,-90.00,180.00,0.00,OPEN,0
654981.452,0,0,0,1.000,1.000,0.999,-90.00,180.00,0.00,OPEN,0
654981.457,0,0,0,1.000,1.000,0.999,-90.00,180.00,0.00,OPEN,0
654981.461,0,0,0,1.000,1.000,0.999,-90.00,180.00,0.00,OPEN,0
654981.466,0,0,0,1.000,1.000,0.999,-90.00,180.00,0.00,OPEN,0
654981.471,0,0,0,1.000,1.000,0.999,-90.00,180.00,0.00,OPEN,0
654981.479,0,0,0,1.000,1.000,0.999,-90.00,180.00,0.00,OPEN,0
654981.483,0,0,0,1.000,1.000,0.999,-90.00,180.00,0.00,OPEN,0
654981.487,0,0,0,1.000,1.000,0.999,-90.00,180.00,0.00,OPEN,0
654981.491,0,0,0,1.000,1.000,0.998,-90.00,180.00,0.00,OPEN,0
654981.497,0,0,0,1.000,1.000,0.998,-90.00,180.00,0.00,OPEN,0
654981.506,0,0,0,1.000,1.000,0.998,-90.00,180.00,0.00,OPEN,0
654981.512,0,0,0,1.000,1.000,0.996,-90.00,180.00,0.00,OPEN,0
654981.520,0,0,0,1.000,1.000,0.995,-90.00,180.00,0.00,OPEN,0
654981.529,0,0,0,1.000,1.000,0.997,-90.00,180.00,0.00,OPEN,0
654981.533,0,0,0,1.000,1.000,0.996,-90.00,180.00,0.00,OPEN,0
654981.538,0,0,0,1.000,1.000,0.997,-90.00,180.00,0.00,OPEN,0
654981.542,0,0,0,1.000,1.000,0.997,-90.00,180.00,0.00,OPEN,0
654981.548,0,0,0,1.000,1.000,0.992,-90.00,180.00,0.00,OPEN,0
654981.552,0,0,0,1.000,1.000,0.988,-90.00,180.00,0.00,OPEN,0
654981.556,0,0,0,1.000,1.000,0.972,-90.00,180.00,0.00,OPEN,0
654981.561,0,0,0,1.000,1.000,0.994,-90.00,180.00,0.00,OPEN,0
654981.567,0,0,0,1.000,1.000,0.996,-90.00,180.00,0.00,OPEN,0
654981.574,0,0,0,1.000,1.000,0.993,-90.00,180.00,0.00,OPEN,0
654981.579,0,0,0,1.000,1.000,0.994,-90.00,180.00,0.00,OPEN,0
654981.583,0,0,0,1.000,1.000,0.993,-90.00,180.00,0.00,OPEN,0
654981.591,0,0,0,1.000,1.000,0.994,-90.00,180.00,0.00,OPEN,0
654981.596,0,0,0,1.000,1.000,0.985,-90.00,180.00,0.00,OPEN,0
654981.600,0,0,0,1.000,1.000,0.889,-90.00,180.00,0.00,OPEN,0
654981.605,0,0,0,1.000,1.000,0.814,-90.00,180.00,0.00,OPEN,0
654981.609,0,0,0,1.000,1.000,0.943,-90.00,180.00,0.00,OPEN,0
654981.617,0,0,0,1.000,1.000,0.984,-90.00,180.00,0.00,OPEN,0
654981.628,0,0,0,1.000,1.000,0.991,-90.00,180.00,0.00,OPEN,0
654981.635,0,0,0,1.000,1.000,0.992,-90.00,180.00,0.00,OPEN,0
654981.643,0,0,0,1.000,1.000,0.995,-90.00,180.00,0.00,OPEN,0
654981.647,0,0,0,1.000,1.000,0.996,-90.00,180.00,0.00,OPEN,0
654981.651,0,0,0,1.000,1.000,0.998,-90.00,180.00,0.00,OPEN,0
654981.655,0,0,0,1.000,1.000,0.998,-90.00,180.00,0.00,OPEN,0
654981.659,0,0,0,1.000,1.000,0.997,-90.00,180.00,0.00,OPEN,0
654981.666,0,0,0,1.000,1.000,0.994,-90.00,180.00,0.00,OPEN,0
654981.674,0,0,0,1.000,1.000,0.994,-90.00,180.00,0.00,OPEN,0
654981.683,0,0,0,1.000,1.000,0.993,-90.00,180.00,0.00,OPEN,0
654981.687,0,0,0,1.000,1.000,0.989,-90.00,180.00,0.00,OPEN,0
654981.692,0,0,0,1.000,1.000,0.981,-90.00,180.00,0.00,OPEN,0
654981.696,0,0,0,1.000,1.000,0.978,-90.00,180.00,0.00,OPEN,0
654981.700,0,0,0,1.000,1.000,0.983,-90.00,180.00,0.00,OPEN,0
654981.705,0,0,0,1.000,1.000,0.993,-90.00,180.00,0.00,OPEN,0
654981.711,0,0,0,1.000,1.000,0.992,-90.00,180.00,0.00,OPEN,0
654981.719,0,0,0,1.000,1.000,0.992,-90.00,180.00,0.00,OPEN,0
654981.723,0,0,0,1.000,1.000,0.989,-90.00,180.00,0.00,OPEN,0
654981.729,0,0,0,1.000,1.000,0.988,-90.00,180.00,0.00,OPEN,0
654981.733,0,0,0,1.000,1.000,0.957,-90.00,180.00,0.00,OPEN,0
654981.737,0,0,0,1.000,1.000,0.920,-90.00,180.00,0.00,OPEN,0
654981.749,0,0,0,1.000,1.000,0.942,-90.00,180.00,0.00,OPEN,0
654981.757,0,0,0,1.000,1.000,0.936,-90.00,180.00,0.00,OPEN,0
654981.764,0,0,0,1.000,1.000,0.935,-90.00,180.00,0.00,OPEN,0
654981.770,0,0,0,1.000,1.000,0.911,-90.00,180.00,0.00,OPEN,0
654981.776,0,0,0,1.000,1.000,0.908,-90.00,180.00,0.00,OPEN,0
654981.786,0,0,0,1.000,1.000,0.968,-90.00,180.00,0.00,OPEN,0
654981.790,0,0,0,1.000,1.000,0.969,-90.00,180.00,0.00,OPEN,0
654981.796,0,0,0,1.000,1.000,0.981,-90.00,180.00,0.00,OPEN,0
654981.800,0,0,0,1.000,1.000,0.995,-90.00,180.00,0.00,OPEN,0
654981.805,0,0,0,1.000,1.000,0.996,-90.00,180.00,0.00,OPEN,0
654981.808,0,0,0,1.000,1.000,0.996,-90.00,180.00,0.00,OPEN,0
654981.813,0,0,0,1.000,1.000,0.994,-90.00,180.00,0.00,OPEN,0
654981.818,0,0,0,1.000,1.000,0.990,-90.00,180.00,0.00,OPEN,0
654981.822,0,0,0,1.000,1.000,0.986,-90.00,180.00,0.00,OPEN,0
654981.826,0,0,0,1.000,1.000,0.987,-90.00,180.00,0.00,OPEN,0
654981.834,0,0,0,1.000,1.000,0.982,-90.00,180.00,0.00,OPEN,0
654981.840,0,0,0,1.000,1.000,0.978,-90.00,180.00,0.00,OPEN,0
654981.846,0,0,0,1.000,1.000,0.983,-90.00,180.00,0.00,OPEN,0
654981.854,0,0,0,1.000,1.000,0.988,-90.00,180.00,0.00,OPEN,0
654981.859,0,0,0,1.000,1.000,0.994,-90.00,180.00,0.00,OPEN,0
654981.868,0,0,0,1.000,1.000,0.994,-90.00,180.00,0.00,OPEN,0
654981.872,0,0,0,1.000,1.000,0.990,-90.00,180.00,0.00,OPEN,0
654981.879,0,0,0,1.000,1.000,0.991,-90.00,180.00,0.00,OPEN,0
654981.887,0,0,0,1.000,1.000,0.989,-90.00,180.00,0.00,OPEN,0
654981.895,0,0,0,1.000,1.000,0.986,-90.00,180.00,0.00,OPEN,0
654981.903,0,0,0,1.000,1.000,0.985,-90.00,180.00,0.00,OPEN,0
654981.910,0,0,0,1.000,1.000,0.981,-90.00,180.00,0.00,OPEN,0
654981.918,0,0,0,1.000,1.000,0.979,-90.00,180.00,0.00,OPEN,0
654981.926,0,0,0,1.000,1.000,0.988,-90.00,180.00,0.00,OPEN,0
654981.935,0,0,0,1.000,1.000,0.987,-90.00,180.00,0.00,OPEN,0
654981.943,0,0,0,1.000,1.000,0.987,-90.00,180.00,0.00,OPEN,0
654981.947,0,0,0,1.000,1.000,0.987,-90.00,180.00,0.00,OPEN,0
654981.952,0,0,0,1.000,1.000,0.990,-90.00,180.00,0.00,OPEN,0
654981.960,0,0,0,1.000,1.000,0.994,-90.00,180.00,0.00,OPEN,0
654981.964,0,0,0,1.000,1.000,0.989,-90.00,180.00,0.00,OPEN,0
654981.968,0,0,0,1.000,1.000,0.987,-90.00,180.00,0.00,OPEN,0
654981.972,0,0,0,1.000,1.000,0.987,-90.00,180.00,0.00,OPEN,0
654981.977,0,0,0,1.000,1.000,0.990,-90.00,180.00,0.00,OPEN,0
654981.985,0,0,0,1.000,1.000,0.981,-90.00,180.00,0.00,OPEN,0
654981.989,0,0,0,1.000,1.000,0.979,-90.00,180.00,0.00,OPEN,0
654981.994,0,0,0,1.000,1.000,0.985,-90.00,180.00,0.00,OPEN,0
654981.999,0,0,0,1.000,1.000,1.000,-90.00,180.00,0.00,OPEN,0
654982.003,0,0,0,1.000,1.000,1.000,-90.00,180.00,0.00,OPEN,0
654982.007,0,0,0,1.000,1.000,1.000,-90.00,180.00,0.00,OPEN,0
654982.014,0,0,0,1.000,1.000,1.000,-90.00,180.00,0.00,OPEN,0
654982.023,1,0,0,1.000,1.000,1.000,-90.00,180.00,4.50,OPEN,1
654982.032,1,0,0,1.000,1.000,1.000,-90.00,180.00,4.50,OPEN,0
654982.036,1,0,0,1.000,1.000,1.000,-90.00,180.00,4.50,OPEN,0
654982.040,1,1,1,1.000,1.000,1.000,0.00,90.00,4.50,OPEN,0
654982.048,1,1,1,1.000,1.000,1.000,0.00,90.00,4.50,OPEN,0
654982.052,1,1,1,1.000,1.000,1.000,0.00,90.00,4.50,OPEN,0
654982.056,1,1,1,1.000,1.000,1.000,0.00,90.00,4.50,OPEN,0
654982.060,1,1,1,1.000,1.000,1.000,0.00,90.00,4.50,OPEN,0
654982.065,1,1,1,1.000,1.000,1.000,0.00,90.00,4.50,OPEN,0
654982.069,1,1,1,1.000,1.000,1.000,0.00,90.00,4.50,OPEN,0
654982.078,1,1,1,1.000,1.000,1.000,0.00,90.00,4.50,OPEN,0
654982.086,1,1,1,1.000,1.000,1.000,0.00,90.00,4.50,OPEN,0
654982.091,1,1,1,1.000,1.000,1.000,0.00,90.00,4.50,OPEN,0
654982.098,1,1,1,1.000,1.000,1.000,0.00,90.00,4.50,OPEN,0
654982.102,1,1,1,1.000,1.000,0.924,0.00,90.00,4.50,OPEN,0
654982.106,1,1,1,1.000,1.000,0.700,0.00,90.00,4.50,OPEN,0
654982.111,1,1,1,1.000,1.000,0.790,0.00,90.00,4.50,OPEN,0
654982.118,1,1,1,1.000,1.000,1.000,0.00,90.00,4.50,OPEN,0
654982.123,1,1,1,1.000,1.000,1.000,0.00,90.00,4.50,OPEN,0
654982.128,1,1,1,1.000,1.000,1.000,0.00,90.00,9.00,OPEN,1
654982.138,1,1,1,0.773,1.000,1.000,0.00,90.00,9.00,OPEN,0
654982.142,1,1,1,1.000,1.000,1.000,0.00,90.00,9.00,OPEN,0
654982.147,1,0,1,1.000,1.000,1.000,0.00,180.00,9.00,OPEN,0
654982.153,1,0,1,1.000,1.000,1.000,0.00,180.00,9.00,OPEN,0
654982.157,1,0,0,1.000,1.000,1.000,-90.00,180.00,9.00,OPEN,0
654982.162,1,0,0,1.000,1.000,1.000,-90.00,180.00,9.00,OPEN,0
654982.166,1,0,0,1.000,1.000,1.000,-90.00,180.00,9.00,OPEN,0
654982.171,1,0,0,1.000,0.522,0.982,-90.00,180.00,9.00,OPEN,0
654982.175,0,0,0,1.000,0.998,0.732,-90.00,180.00,9.00,OPEN,0
654982.180,0,0,0,1.000,1.000,0.598,-90.00,180.00,9.00,OPEN,0
654982.190,0,0,0,1.000,1.000,0.546,-90.00,180.00,9.00,OPEN,0
654982.196,0,0,0,1.000,1.000,0.600,-90.00,180.00,9.00,OPEN,0
654982.200,0,0,0,1.000,1.000,0.996,-90.00,180.00,9.00,OPEN,0
654982.204,0,0,0,1.000,1.000,0.976,-90.00,180.00,9.00,OPEN,0
654982.208,0,0,0,1.000,1.000,0.959,-90.00,180.00,9.00,OPEN,0
654982.213,0,0,0,1.000,1.000,0.984,-90.00,180.00,9.00,OPEN,0
654982.218,0,0,0,1.000,0.992,0.988,-90.00,180.00,9.00,OPEN,0
654982.222,0,0,0,1.000,0.973,0.978,-90.00,180.00,9.00,OPEN,0
654982.228,0,0,0,1.000,0.743,0.999,-90.00,180.00,9.00,OPEN,1
654982.236,0,0,0,1.000,1.000,1.000,-90.00,180.00,9.00,OPEN,0
654982.244,0,0,0,1.000,1.000,0.995,-90.00,180.00,9.00,OPEN,0
654982.249,0,0,0,1.000,0.810,0.803,-90.00,180.00,9.00,OPEN,0
654982.253,0,0,0,1.000,0.977,0.574,-90.00,180.00,9.00,OPEN,0
654982.257,0,0,0,1.000,0.949,0.637,-90.00,180.00,9.00,OPEN,0
654982.263,0,0,0,1.000,0.778,0.794,-90.00,180.00,9.00,OPEN,0
654982.268,0,0,0,1.000,0.995,0.992,-90.00,180.00,9.00,OPEN,0
654982.272,0,0,0,1.000,1.000,1.000,-90.00,180.00,9.00,OPEN,0
654982.276,0,0,0,1.000,1.000,1.000,-90.00,180.00,9.00,OPEN,0
654982.281,0,0,0,1.000,1.000,1.000,-90.00,180.00,9.00,OPEN,0
654982.285,0,0,0,1.000,1.000,1.000,-90.00,180.00,9.00,OPEN,0
654982.289,0,0,0,1.000,1.000,1.000,-90.00,180.00,9.00,OPEN,0
654982.294,0,0,0,1.000,1.000,1.000,-90.00,180.00,9.00,OPEN,0
654982.299,0,0,0,1.000,1.000,1.000,-90.00,180.00,9.00,OPEN,0
654982.303,0,0,0,1.000,1.000,0.956,-90.00,180.00,9.00,OPEN,0
654982.310,0,0,0,1.000,1.000,0.562,-90.00,180.00,9.00,OPEN,0
654982.318,0,0,0,1.000,1.000,1.000,-90.00,180.00,9.00,OPEN,0
654982.325,0,0,0,1.000,1.000,1.000,-90.00,180.00,9.00,OPEN,0
654982.333,0,0,0,1.000,1.000,1.000,-90.00,180.00,9.00,OPEN,0
654982.341,0,0,0,1.000,1.000,1.000,-90.00,180.00,9.00,OPEN,0
654982.346,0,0,0,1.000,1.000,1.000,-90.00,180.00,9.00,OPEN,0
654982.351,0,0,0,1.000,1.000,1.000,-90.00,180.00,9.00,OPEN,0
654982.355,0,0,0,1.000,1.000,1.000,-90.00,180.00,9.00,OPEN,0
654982.359,0,0,0,1.000,1.000,1.000,-90.00,180.00,9.00,OPEN,0
654982.364,0,0,0,1.000,1.000,1.000,-90.00,180.00,9.00,OPEN,0
654982.374,0,0,0,1.000,1.000,1.000,-90.00,180.00,9.00,OPEN,0
654982.379,0,0,0,1.000,1.000,1.000,-90.00,180.00,9.00,OPEN,0
654982.383,0,0,0,1.000,1.000,1.000,-90.00,180.00,9.00,OPEN,0
654982.387,0,0,0,1.000,1.000,1.000,-90.00,180.00,9.00,OPEN,0
654982.391,0,0,0,1.000,1.000,1.000,-90.00,180.00,9.00,OPEN,0
654982.395,0,0,0,1.000,1.000,1.000,-90.00,180.00,9.00,OPEN,0
654982.399,0,0,0,1.000,1.000,1.000,-90.00,180.00,9.00,OPEN,0
654982.404,0,0,0,1.000,1.000,1.000,-90.00,180.00,9.00,OPEN,0
654982.408,0,0,0,1.000,0.999,1.000,-90.00,180.00,9.00,OPEN,0
654982.413,0,0,0,1.000,0.847,0.986,-90.00,180.00,9.00,OPEN,0
654982.419,0,0,0,1.000,1.000,0.759,-90.00,180.00,9.00,OPEN,0
654982.423,0,0,0,1.000,1.000,0.965,-90.00,180.00,9.00,OPEN,0
654982.428,0,0,0,1.000,1.000,0.994,-90.00,180.00,9.00,OPEN,0
654982.436,0,0,0,1.000,1.000,0.994,-90.00,180.00,9.00,OPEN,0
654982.444,0,0,0,1.000,1.000,0.993,-90.00,180.00,9.00,OPEN,0
654982.452,0,0,0,1.000,1.000,0.991,-90.00,180.00,9.00,OPEN,0
654982.460,0,0,0,1.000,1.000,0.987,-90.00,180.00,9.00,OPEN,0
654982.464,0,0,0,1.000,1.000,0.991,-90.00,180.00,9.00,OPEN,0
654982.468,0,0,0,1.000,1.000,0.995,-90.00,180.00,9.00,OPEN,0
654982.473,0,0,0,1.000,1.000,0.993,-90.00,180.00,9.00,OPEN,0
654982.477,0,0,0,1.000,1.000,0.985,-90.00,180.00,9.00,OPEN,0
654982.486,0,0,0,1.000,1.000,0.981,-90.00,180.00,9.00,OPEN,0
654982.490,0,0,0,1.000,1.000,0.991,-90.00,180.00,9.00,OPEN,0
654982.494,0,0,0,1.000,1.000,0.989,-90.00,180.00,9.00,OPEN,0
654982.498,0,0,0,1.000,1.000,0.980,-90.00,180.00,9.00,OPEN,0
654982.502,0,0,0,1.000,1.000,0.959,-90.00,180.00,9.00,OPEN,0
654982.507,0,0,0,1.000,1.000,0.587,-90.00,180.00,9.00,OPEN,0
654982.516,0,0,0,1.000,1.000,0.505,-90.00,180.00,9.00,OPEN,0
654982.522,0,0,0,1.000,1.000,0.514,-90.00,180.00,9.00,OPEN,0
654982.527,0,0,0,1.000,1.000,0.504,-90.00,180.00,9.00,OPEN,0
654982.531,0,0,0,1.000,1.000,0.527,-90.00,180.00,9.00,OPEN,0
654982.536,0,0,0,1.000,1.000,0.761,-90.00,180.00,9.00,OPEN,0
654982.540,0,0,0,1.000,1.000,0.892,-90.00,180.00,9.00,OPEN,0
654982.545,0,0,0,1.000,1.000,0.929,-90.00,180.00,9.00,OPEN,0
654982.549,0,0,0,1.000,1.000,0.940,-90.00,180.00,9.00,OPEN,0
654982.553,0,0,0,1.000,1.000,0.913,-90.00,180.00,9.00,OPEN,0
654982.557,0,0,1,1.000,1.000,0.912,0.00,180.00,9.00,OPEN,1
654982.562,0,0,1,1.000,1.000,0.848,0.00,180.00,9.00,OPEN,0
654982.566,0,0,1,1.000,1.000,0.874,0.00,180.00,9.00,OPEN,0
654982.570,0,0,1,1.000,1.000,0.876,0.00,180.00,9.00,OPEN,0
654982.574,0,0,1,1.000,1.000,0.909,0.00,180.00,9.00,OPEN,0
654982.578,0,0,1,1.000,1.000,0.925,0.00,180.00,9.00,OPEN,0
654982.582,0,0,1,1.000,1.000,0.970,0.00,180.00,9.00,OPEN,0
654982.586,0,0,1,1.000,1.000,0.980,0.00,180.00,9.00,OPEN,0
654982.591,0,0,1,1.000,1.000,0.982,0.00,180.00,9.00,OPEN,0
654982.596,0,0,1,1.000,1.000,0.990,0.00,180.00,9.00,OPEN,0
654982.600,0,0,1,1.000,1.000,0.993,0.00,180.00,9.00,OPEN,0
654982.605,0,0,1,1.000,1.000,0.991,0.00,180.00,9.00,OPEN,0
654982.608,0,0,1,1.000,1.000,0.993,0.00,180.00,9.00,OPEN,0
654982.614,0,0,1,1.000,1.000,0.995,0.00,180.00,9.00,OPEN,0
654982.617,0,0,1,1.000,1.000,0.995,0.00,180.00,9.00,OPEN,0
654982.623,0,0,1,1.000,1.000,0.996,0.00,180.00,9.00,OPEN,0
654982.627,0,0,1,1.000,1.000,0.997,0.00,180.00,9.00,OPEN,0
654982.632,0,0,1,1.000,1.000,0.988,0.00,180.00,9.00,OPEN,0
654982.638,0,0,1,1.000,1.000,0.949,0.00,180.00,9.00,OPEN,0
654982.642,0,0,1,1.000,1.000,0.769,0.00,180.00,9.00,OPEN,0
654982.648,0,0,1,1.000,1.000,0.682,0.00,180.00,9.00,OPEN,0
654982.653,0,0,1,1.000,1.000,0.598,0.00,180.00,9.00,OPEN,0
654982.657,0,0,1,1.000,1.000,0.619,0.00,180.00,9.00,OPEN,0
654982.662,0,0,1,1.000,1.000,0.518,0.00,180.00,9.00,OPEN,0
654982.667,0,0,1,1.000,1.000,0.527,0.00,180.00,9.00,OPEN,0
654982.673,0,0,1,1.000,1.000,0.560,0.00,180.00,9.00,OPEN,0
654982.680,0,0,1,1.000,1.000,0.534,0.00,180.00,9.00,OPEN,0
654982.688,0,0,1,1.000,1.000,0.687,0.00,180.00,9.00,OPEN,0
654982.695,0,0,1,1.000,1.000,0.702,0.00,180.00,9.00,OPEN,0
654982.701,0,0,1,1.000,1.000,0.818,0.00,180.00,9.00,OPEN,0
654982.705,0,0,1,1.000,1.000,0.739,0.00,180.00,9.00,OPEN,0
654982.709,0,0,1,1.000,1.000,0.771,0.00,180.00,9.00,OPEN,0
654982.713,0,0,1,1.000,1.000,0.750,0.00,180.00,9.00,OPEN,0
654982.717,0,0,1,1.000,1.000,0.721,0.00,180.00,9.00,OPEN,0
654982.722,0,0,1,1.000,1.000,0.617,0.00,180.00,9.00,OPEN,0
654982.726,0,0,1,1.000,1.000,0.580,0.00,180.00,9.00,OPEN,0
654982.731,0,0,1,1.000,1.000,0.666,0.00,180.00,9.00,OPEN,0
654982.737,0,0,1,1.000,1.000,0.615,0.00,180.00,9.00,OPEN,0
654982.742,0,0,1,1.000,1.000,0.527,0.00,180.00,9.00,OPEN,0
654982.747,0,0,1,1.000,1.000,0.607,0.00,180.00,9.00,OPEN,0
654982.752,0,0,1,1.000,1.000,0.608,0.00,180.00,9.00,OPEN,0
654982.756,0,0,1,1.000,1.000,0.708,0.00,180.00,9.00,OPEN,0
654982.761,0,0,1,1.000,1.000,0.855,0.00,180.00,9.00,OPEN,0
654982.768,0,0,1,1.000,1.000,0.816,0.00,180.00,9.00,OPEN,0
654982.777,0,0,1,1.000,1.000,0.858,0.00,180.00,9.00,OPEN,0
654982.786,0,0,1,1.000,1.000,0.850,0.00,180.00,9.00,OPEN,0
654982.795,0,0,1,1.000,1.000,0.653,0.00,180.00,9.00,OPEN,0
654982.805,0,0,1,1.000,1.000,0.612,0.00,180.00,9.00,OPEN,0
654982.814,0,0,1,1.000,1.000,0.638,0.00,180.00,9.00,OPEN,0
654982.823,0,0,1,1.000,1.000,0.707,0.00,180.00,9.00,OPEN,0
654982.832,0,0,1,1.000,1.000,0.766,0.00,180.00,9.00,OPEN,0
654982.836,0,0,1,1.000,1.000,0.682,0.00,180.00,9.00,OPEN,0
654982.841,0,0,1,1.000,1.000,0.505,0.00,180.00,9.00,OPEN,0
654982.847,0,0,1,1.000,1.000,0.640,0.00,180.00,9.00,OPEN,0
654982.858,0,0,1,1.000,1.000,0.733,0.00,180.00,9.00,OPEN,0
654982.867,0,0,1,1.000,1.000,1.000,0.00,180.00,9.00,OPEN,0
654982.873,0,0,1,1.000,1.000,1.000,0.00,180.00,9.00,OPEN,0
654982.882,0,0,1,1.000,1.000,1.000,0.00,180.00,9.00,OPEN,0
654982.892,0,0,1,1.000,1.000,1.000,0.00,180.00,9.00,OPEN,0
654982.900,0,0,1,1.000,1.000,1.000,0.00,180.00,9.00,OPEN,0
654982.910,0,0,0,1.000,1.000,1.000,-90.00,180.00,9.00,OPEN,1
654982.919,0,0,0,1.000,1.000,1.000,-90.00,180.00,9.00,OPEN,0
654982.928,0,0,0,1.000,1.000,1.000,-90.00,180.00,9.00,OPEN,0
654982.932,0,0,0,1.000,1.000,1.000,-90.00,180.00,9.00,OPEN,0
654982.940,0,0,0,1.000,1.000,1.000,-90.00,180.00,9.00,OPEN,0
654982.949,0,0,0,0.984,1.000,1.000,-90.00,180.00,9.00,OPEN,0
654982.953,0,0,0,0.985,1.000,1.000,-90.00,180.00,9.00,OPEN,0
654982.958,0,0,0,0.968,1.000,1.000,-90.00,180.00,9.00,OPEN,0
654982.962,0,0,0,0.966,1.000,1.000,-90.00,180.00,9.00,OPEN,0
654982.972,0,0,0,0.962,1.000,1.000,-90.00,180.00,9.00,OPEN,0
654982.977,0,0,0,0.957,1.000,1.000,-90.00,180.00,9.00,OPEN,0
654982.987,0,0,0,0.937,1.000,1.000,-90.00,180.00,9.00,OPEN,0
654982.996,0,1,0,0.984,1.000,1.000,-90.00,90.00,9.00,OPEN,0
654983.005,0,1,0,0.999,1.000,1.000,-90.00,90.00,9.00,OPEN,0
654983.011,0,1,0,1.000,1.000,1.000,-90.00,90.00,9.00,OPEN,1
654983.018,0,1,0,1.000,0.985,0.999,-90.00,90.00,9.00,OPEN,0
654983.028,0,1,0,1.000,1.000,1.000,-90.00,90.00,9.00,OPEN,0
654983.038,0,1,0,1.000,1.000,1.000,-90.00,90.00,9.00,OPEN,0
654983.047,0,1,0,1.000,0.997,1.000,-90.00,90.00,9.00,OPEN,0
654983.057,2,1,0,1.000,1.000,1.000,-90.00,90.00,4.50,OPEN,0
654983.067,2,1,0,1.000,1.000,1.000,-90.00,90.00,4.50,OPEN,0
654983.079,2,1,0,1.000,1.000,1.000,-90.00,90.00,4.50,OPEN,0
654983.090,2,1,0,1.000,1.000,1.000,-90.00,90.00,4.50,OPEN,0
654983.099,2,1,0,1.000,0.996,0.988,-90.00,90.00,4.50,OPEN,0
654983.110,2,1,0,1.000,0.999,0.980,-90.00,90.00,4.50,OPEN,0
654983.123,2,1,0,1.000,0.999,0.977,-90.00,90.00,4.50,OPEN,1
654983.132,2,1,0,1.000,0.998,0.962,-90.00,90.00,4.50,OPEN,0
654983.141,2,1,0,1.000,0.958,0.800,-90.00,90.00,4.50,OPEN,0
654983.149,2,1,0,1.000,1.000,0.998,-90.00,90.00,4.50,OPEN,0
654983.158,2,1,0,1.000,1.000,1.000,-90.00,90.00,0.00,OPEN,0
654983.166,2,1,0,1.000,1.000,1.000,-90.00,90.00,0.00,OPEN,0
654983.176,2,1,0,1.000,1.000,1.000,-90.00,90.00,0.00,OPEN,0
654983.182,2,1,0,1.000,1.000,1.000,-90.00,90.00,0.00,OPEN,0
654983.190,2,1,0,1.000,1.000,1.000,-90.00,90.00,0.00,OPEN,0
654983.195,2,1,0,1.000,1.000,1.000,-90.00,90.00,0.00,OPEN,0
654983.199,2,0,0,1.000,1.000,1.000,-90.00,180.00,0.00,OPEN,0
654983.203,2,0,0,1.000,1.000,1.000,-90.00,180.00,0.00,OPEN,0
654983.209,2,0,0,1.000,1.000,1.000,-90.00,180.00,0.00,OPEN,0
654983.216,2,0,0,1.000,1.000,1.000,-90.00,180.00,0.00,OPEN,0
654983.223,2,0,0,1.000,1.000,1.000,-90.00,180.00,0.00,OPEN,0
654983.228,2,0,0,1.000,1.000,1.000,-90.00,180.00,0.00,OPEN,1
654983.234,2,0,0,1.000,1.000,1.000,-90.00,180.00,0.00,OPEN,0
654983.239,2,0,0,1.000,1.000,1.000,-90.00,180.00,0.00,OPEN,0
654983.245,2,0,0,1.000,1.000,1.000,-90.00,180.00,0.00,OPEN,0
654983.253,2,0,0,1.000,1.000,1.000,-90.00,180.00,0.00,OPEN,0
654983.258,2,0,0,1.000,1.000,1.000,-90.00,180.00,0.00,OPEN,0
654983.262,2,0,0,1.000,1.000,1.000,-90.00,180.00,-4.50,OPEN,0
654983.266,2,0,0,1.000,1.000,1.000,-90.00,180.00,-4.50,OPEN,0
654983.270,2,0,0,1.000,1.000,1.000,-90.00,180.00,-4.50,OPEN,0
654983.274,2,0,0,1.000,1.000,1.000,-90.00,180.00,-4.50,OPEN,0
654983.281,2,0,0,1.000,1.000,1.000,-90.00,180.00,-4.50,OPEN,0
654983.285,2,0,0,1.000,1.000,1.000,-90.00,180.00,-4.50,OPEN,0
654983.289,2,0,0,1.000,1.000,1.000,-90.00,180.00,-4.50,OPEN,0
654983.294,2,0,0,1.000,1.000,1.000,-90.00,180.00,-4.50,OPEN,0
654983.299,2,0,0,1.000,1.000,1.000,-90.00,180.00,-4.50,OPEN,0
654983.303,2,0,0,1.000,1.000,1.000,-90.00,180.00,-4.50,OPEN,0
654983.307,2,0,0,1.000,1.000,1.000,-90.00,180.00,-4.50,OPEN,0
654983.312,2,0,0,1.000,1.000,1.000,-90.00,180.00,-4.50,OPEN,0
654983.319,2,0,0,1.000,1.000,1.000,-90.00,180.00,-4.50,OPEN,0
654983.329,2,0,0,1.000,1.000,1.000,-90.00,180.00,-4.50,OPEN,1
654983.343,2,0,0,1.000,1.000,1.000,-90.00,180.00,-4.50,OPEN,0
654983.350,2,0,0,1.000,1.000,1.000,-90.00,180.00,-4.50,OPEN,0
654983.356,2,0,0,1.000,1.000,1.000,-90.00,180.00,-4.50,OPEN,0
654983.361,2,0,0,1.000,1.000,1.000,-90.00,180.00,-4.50,OPEN,0
654983.370,2,0,0,1.000,1.000,1.000,-90.00,180.00,-9.00,OPEN,0
654983.379,2,0,0,1.000,1.000,1.000,-90.00,180.00,-9.00,OPEN,0
654983.388,2,0,0,1.000,1.000,1.000,-90.00,180.00,-9.00,OPEN,0
654983.395,2,0,0,1.000,1.000,1.000,-90.00,180.00,-9.00,OPEN,0
654983.400,2,0,0,1.000,1.000,1.000,-90.00,180.00,-9.00,OPEN,0
654983.404,2,0,0,1.000,1.000,1.000,-90.00,180.00,-9.00,OPEN,0
654983.407,2,0,0,1.000,1.000,1.000,-90.00,180.00,-9.00,OPEN,0
654983.413,2,0,0,1.000,1.000,1.000,-90.00,180.00,-9.00,OPEN,0
654983.424,2,0,0,1.000,1.000,1.000,-90.00,180.00,-9.00,OPEN,0
654983.437,2,0,0,1.000,1.000,1.000,-90.00,180.00,-9.00,OPEN,1
654983.447,2,0,0,1.000,1.000,1.000,-90.00,180.00,-9.00,OPEN,0
654983.457,2,0,0,1.000,1.000,1.000,-90.00,180.00,-9.00,OPEN,0
654983.466,2,0,0,1.000,1.000,1.000,-90.00,180.00,-9.00,OPEN,0
654983.475,2,0,0,1.000,1.000,1.000,-90.00,180.00,-13.50,OPEN,0
654983.484,2,0,0,1.000,1.000,1.000,-90.00,180.00,-13.50,OPEN,0
654983.493,2,0,0,1.000,1.000,1.000,-90.00,180.00,-13.50,OPEN,0
654983.502,2,0,0,1.000,1.000,1.000,-90.00,180.00,-13.50,OPEN,0
654983.511,2,0,0,1.000,1.000,1.000,-90.00,180.00,-13.50,OPEN,0
654983.519,2,0,0,1.000,1.000,1.000,-90.00,180.00,-13.50,OPEN,0
654983.528,2,0,0,1.000,1.000,1.000,-90.00,180.00,-13.50,OPEN,0
654983.538,2,0,0,1.000,1.000,1.000,-90.00,180.00,-13.50,OPEN,1
654983.545,2,0,0,1.000,1.000,1.000,-90.00,180.00,-13.50,OPEN,0
654983.553,2,0,0,1.000,1.000,1.000,-90.00,180.00,-13.50,OPEN,0
654983.561,2,0,0,1.000,1.000,1.000,-90.00,180.00,-13.50,OPEN,0
654983.569,2,0,0,1.000,1.000,1.000,-90.00,180.00,-13.50,OPEN,0
654983.576,2,0,0,1.000,1.000,1.000,-90.00,180.00,-18.00,OPEN,0
654983.584,2,0,0,1.000,1.000,1.000,-90.00,180.00,-18.00,OPEN,0
654983.592,2,0,0,1.000,1.000,1.000,-90.00,180.00,-18.00,OPEN,0
654983.601,2,0,0,1.000,1.000,1.000,-90.00,180.00,-18.00,OPEN,0
654983.609,2,0,0,1.000,1.000,1.000,-90.00,180.00,-18.00,OPEN,0
654983.617,2,0,0,1.000,1.000,1.000,-90.00,180.00,-18.00,OPEN,0
654983.622,2,0,0,1.000,1.000,1.000,-90.00,180.00,-18.00,OPEN,0
654983.632,2,0,0,1.000,1.000,1.000,-90.00,180.00,-18.00,OPEN,0
654983.640,2,0,0,1.000,1.000,1.000,-90.00,180.00,-18.00,OPEN,1
654983.648,2,0,0,1.000,1.000,1.000,-90.00,180.00,-18.00,OPEN,0
654983.657,2,0,0,1.000,1.000,1.000,-90.00,180.00,-18.00,OPEN,0
654983.665,2,0,0,1.000,1.000,1.000,-90.00,180.00,-18.00,OPEN,0
654983.673,2,0,0,1.000,1.000,1.000,-90.00,180.00,-18.00,OPEN,0
654983.682,2,0,0,1.000,1.000,1.000,-90.00,180.00,-22.50,OPEN,0
654983.690,2,0,0,1.000,1.000,1.000,-90.00,180.00,-22.50,OPEN,0
654983.699,2,0,0,1.000,1.000,1.000,-90.00,180.00,-22.50,OPEN,0
654983.707,2,0,0,1.000,1.000,1.000,-90.00,180.00,-22.50,OPEN,0
654983.714,2,0,0,1.000,1.000,1.000,-90.00,180.00,-22.50,OPEN,0
654983.721,2,0,0,1.000,1.000,1.000,-90.00,180.00,-22.50,OPEN,0
654983.725,2,0,0,1.000,1.000,1.000,-90.00,180.00,-22.50,OPEN,0
654983.729,2,0,0,1.000,1.000,1.000,-90.00,180.00,-22.50,OPEN,0
654983.734,2,0,0,1.000,1.000,1.000,-90.00,180.00,-22.50,OPEN,0
654983.738,2,0,0,1.000,1.000,1.000,-90.00,180.00,-22.50,OPEN,0
654983.743,2,0,0,1.000,1.000,1.000,-90.00,180.00,-22.50,OPEN,1
654983.749,2,0,0,1.000,1.000,1.000,-90.00,180.00,-22.50,OPEN,0
654983.756,2,0,0,1.000,1.000,1.000,-90.00,180.00,-22.50,OPEN,0
654983.765,2,0,0,1.000,1.000,1.000,-90.00,180.00,-22.50,OPEN,0
654983.772,2,0,0,1.000,1.000,1.000,-90.00,180.00,-22.50,OPEN,0
654983.778,2,0,0,1.000,1.000,1.000,-90.00,180.00,-22.50,OPEN,0
654983.783,2,0,0,1.000,1.000,1.000,-90.00,180.00,-27.00,OPEN,0
654983.788,2,0,0,1.000,1.000,1.000,-90.00,180.00,-27.00,OPEN,0
654983.794,2,0,0,1.000,1.000,1.000,-90.00,180.00,-27.00,OPEN,0
654983.798,2,0,0,1.000,1.000,1.000,-90.00,180.00,-27.00,OPEN,0
654983.802,2,0,0,1.000,1.000,1.000,-90.00,180.00,-27.00,OPEN,0
654983.807,2,0,0,1.000,1.000,1.000,-90.00,180.00,-27.00,OPEN,0
654983.816,2,0,0,1.000,1.000,1.000,-90.00,180.00,-27.00,OPEN,0
654983.824,2,0,0,1.000,1.000,1.000,-90.00,180.00,-27.00,OPEN,0
654983.829,2,0,0,1.000,1.000,1.000,-90.00,180.00,-27.00,OPEN,0
654983.833,2,0,0,1.000,1.000,1.000,-90.00,180.00,-27.00,OPEN,0
654983.838,2,0,0,1.000,1.000,1.000,-90.00,180.00,-27.00,OPEN,0
654983.842,2,0,0,1.000,1.000,1.000,-90.00,180.00,-27.00,OPEN,0
654983.850,2,0,0,0.999,1.000,1.000,-90.00,180.00,-27.00,OPEN,1
654983.855,2,0,0,0.998,1.000,1.000,-90.00,180.00,-27.00,OPEN,0
654983.860,2,0,0,0.994,1.000,1.000,-90.00,180.00,-27.00,OPEN,0
654983.868,2,0,0,0.963,1.000,1.000,-90.00,180.00,-27.00,OPEN,0
654983.872,2,0,0,0.904,1.000,1.000,-90.00,180.00,-27.00,OPEN,0
654983.876,2,0,0,0.723,1.000,1.000,-90.00,180.00,-27.00,OPEN,0
654983.884,2,0,0,0.684,1.000,1.000,-90.00,180.00,-31.50,OPEN,0
654983.888,2,0,0,0.927,1.000,1.000,-90.00,180.00,-31.50,OPEN,0
654983.892,2,0,0,0.966,1.000,1.000,-90.00,180.00,-31.50,OPEN,0
654983.902,2,0,0,0.999,1.000,1.000,-90.00,180.00,-31.50,OPEN,0
654983.906,2,0,0,1.000,1.000,1.000,-90.00,180.00,-31.50,OPEN,0
654983.911,2,0,0,1.000,1.000,1.000,-90.00,180.00,-31.50,OPEN,0
654983.919,2,0,0,1.000,1.000,1.000,-90.00,180.00,-31.50,OPEN,0
654983.925,2,0,0,1.000,1.000,1.000,-90.00,180.00,-31.50,OPEN,0
654983.931,0,0,0,1.000,1.000,1.000,-90.00,180.00,-31.50,OPEN,0
654983.939,0,0,0,1.000,1.000,1.000,-90.00,180.00,-31.50,OPEN,0
654983.945,0,0,0,1.000,1.000,1.000,-90.00,180.00,-31.50,OPEN,0
654983.950,0,0,0,1.000,1.000,1.000,-90.00,180.00,-31.50,OPEN,0
654983.956,0,0,0,1.000,1.000,1.000,-90.00,180.00,-31.50,OPEN,1
654983.962,0,0,0,1.000,1.000,1.000,-90.00,180.00,-31.50,OPEN,0
654983.967,0,0,0,1.000,1.000,1.000,-90.00,180.00,-31.50,OPEN,0
654983.971,0,0,0,1.000,1.000,1.000,-90.00,180.00,-31.50,OPEN,0
654983.975,0,0,0,1.000,1.000,1.000,-90.00,180.00,-31.50,OPEN,0
654983.979,0,0,0,1.000,1.000,1.000,-90.00,180.00,-31.50,OPEN,0
654983.984,0,0,0,1.000,1.000,1.000,-90.00,180.00,-31.50,OPEN,0
654983.987,0,0,0,1.000,1.000,1.000,-90.00,180.00,-31.50,OPEN,0
654983.992,0,0,0,1.000,1.000,1.000,-90.00,180.00,-31.50,OPEN,0
654983.996,0,0,0,1.000,1.000,1.000,-90.00,180.00,-31.50,OPEN,0
654984.001,0,0,0,1.000,1.000,1.000,-90.00,180.00,-31.50,OPEN,0
654984.005,0,0,0,1.000,1.000,1.000,-90.00,180.00,-31.50,OPEN,0
654984.009,0,0,0,1.000,1.000,1.000,-90.00,180.00,-31.50,OPEN,0
654984.015,0,0,0,1.000,1.000,1.000,-90.00,180.00,-31.50,OPEN,0
654984.020,0,0,0,1.000,1.000,1.000,-90.00,180.00,-31.50,OPEN,0
654984.026,0,0,0,1.000,1.000,1.000,-90.00,180.00,-31.50,OPEN,0
654984.038,0,0,0,1.000,1.000,1.000,-90.00,180.00,-31.50,OPEN,0
654984.047,0,0,0,1.000,1.000,1.000,-90.00,180.00,-31.50,OPEN,0
654984.052,0,0,0,1.000,1.000,1.000,-90.00,180.00,-31.50,OPEN,0
654984.056,0,0,0,1.000,1.000,1.000,-90.00,180.00,-31.50,OPEN,0
654984.062,0,0,0,1.000,1.000,1.000,-90.00,180.00,-31.50,OPEN,0
654984.066,0,0,0,1.000,1.000,1.000,-90.00,180.00,-31.50,OPEN,0
654984.071,0,0,0,1.000,1.000,1.000,-90.00,180.00,-31.50,OPEN,0
654984.077,0,0,0,1.000,1.000,1.000,-90.00,180.00,-31.50,OPEN,0
654984.086,0,0,0,1.000,1.000,1.000,-90.00,180.00,-31.50,OPEN,0
654984.091,0,0,0,1.000,1.000,1.000,-90.00,180.00,-31.50,OPEN,0
654984.096,0,0,0,1.000,1.000,1.000,-90.00,180.00,-31.50,OPEN,0
654984.101,0,0,0,1.000,1.000,1.000,-90.00,180.00,-31.50,OPEN,0
654984.105,0,0,0,1.000,1.000,1.000,-90.00,180.00,-31.50,OPEN,0
654984.110,0,0,0,1.000,1.000,1.000,-90.00,180.00,-31.50,OPEN,0
654984.115,0,0,0,1.000,1.000,1.000,-90.00,180.00,-31.50,OPEN,0
654984.120,0,0,0,1.000,1.000,1.000,-90.00,180.00,-31.50,OPEN,0
654984.124,0,0,0,1.000,1.000,1.000,-90.00,180.00,-31.50,OPEN,0
654984.129,0,0,0,1.000,1.000,1.000,-90.00,180.00,-31.50,OPEN,0
654984.134,0,0,0,1.000,1.000,1.000,-90.00,180.00,-31.50,OPEN,0
654984.140,0,0,0,1.000,1.000,1.000,-90.00,180.00,-31.50,OPEN,0
654984.146,0,0,0,1.000,1.000,1.000,-90.00,180.00,-31.50,OPEN,0
654984.151,0,0,0,1.000,1.000,1.000,-90.00,180.00,-31.50,OPEN,0
654984.157,0,0,0,1.000,1.000,1.000,-90.00,180.00,-31.50,OPEN,0
654984.162,0,0,0,1.000,1.000,1.000,-90.00,180.00,-31.50,OPEN,0
654984.167,0,0,0,1.000,1.000,1.000,-90.00,180.00,-31.50,OPEN,0
654984.173,0,0,0,1.000,1.000,1.000,-90.00,180.00,-31.50,OPEN,0
654984.178,0,0,0,1.000,1.000,1.000,-90.00,180.00,-31.50,OPEN,0
654984.182,0,0,0,1.000,1.000,1.000,-90.00,180.00,-31.50,OPEN,0
654984.187,0,0,0,1.000,1.000,1.000,-90.00,180.00,-31.50,OPEN,0
654984.192,0,0,0,1.000,1.000,1.000,-90.00,180.00,-31.50,OPEN,0
654984.196,0,0,0,1.000,1.000,1.000,-90.00,180.00,-31.50,OPEN,0
654984.201,0,0,0,1.000,1.000,1.000,-90.00,180.00,-31.50,OPEN,0
654984.205,0,0,0,1.000,1.000,1.000,-90.00,180.00,-31.50,OPEN,0
654984.209,0,0,0,1.000,1.000,1.000,-90.00,180.00,-31.50,OPEN,0
654984.216,0,0,0,1.000,1.000,1.000,-90.00,180.00,-31.50,OPEN,0
654984.225,0,0,0,1.000,1.000,1.000,-90.00,180.00,-31.50,OPEN,0
654984.233,0,0,0,1.000,1.000,1.000,-90.00,180.00,-31.50,OPEN,0
654984.237,0,0,0,1.000,1.000,1.000,-90.00,180.00,-31.50,OPEN,0
654984.241,0,0,0,1.000,1.000,1.000,-90.00,180.00,-31.50,OPEN,0
654984.248,0,0,0,1.000,1.000,1.000,-90.00,180.00,-31.50,OPEN,0
654984.256,0,0,0,1.000,1.000,1.000,-90.00,180.00,-31.50,OPEN,0
654984.265,0,0,0,1.000,1.000,1.000,-90.00,180.00,-31.50,OPEN,0
654984.272,0,0,0,1.000,1.000,1.000,-90.00,180.00,-31.50,OPEN,0
654984.277,0,0,0,1.000,1.000,1.000,-90.00,180.00,-31.50,OPEN,0
654984.285,0,0,0,1.000,1.000,1.000,-90.00,180.00,-31.50,OPEN,0
654984.294,0,0,0,1.000,1.000,1.000,-90.00,180.00,-31.50,OPEN,0
654984.299,0,0,0,1.000,1.000,1.000,-90.00,180.00,-31.50,OPEN,0
654984.304,0,0,0,1.000,1.000,1.000,-90.00,180.00,-31.50,OPEN,0
654984.308,0,0,0,1.000,1.000,1.000,-90.00,180.00,-31.50,OPEN,0
654984.312,0,0,0,1.000,1.000,1.000,-90.00,180.00,-31.50,OPEN,0
654984.316,0,0,0,1.000,1.000,1.000,-90.00,180.00,-31.50,OPEN,0
654984.320,0,0,0,1.000,1.000,1.000,-90.00,180.00,-31.50,OPEN,0
654984.325,0,0,0,1.000,1.000,1.000,-90.00,180.00,-31.50,OPEN,0
654984.332,0,0,0,1.000,1.000,1.000,-90.00,180.00,-31.50,OPEN,0
654984.345,0,0,0,1.000,1.000,1.000,-90.00,180.00,-31.50,OPEN,0
654984.354,0,0,0,1.000,1.000,1.000,-90.00,180.00,-31.50,OPEN,0
654984.360,0,0,0,1.000,1.000,1.000,-90.00,180.00,-31.50,OPEN,0
654984.370,0,0,0,1.000,1.000,1.000,-90.00,180.00,-31.50,OPEN,0
654984.378,0,0,0,1.000,1.000,1.000,-90.00,180.00,-31.50,OPEN,0
654984.386,0,0,0,1.000,1.000,1.000,-90.00,180.00,-31.50,OPEN,0
654984.391,0,0,0,1.000,1.000,1.000,-90.00,180.00,-31.50,OPEN,0
654984.395,0,0,0,1.000,1.000,1.000,-90.00,180.00,-31.50,OPEN,0
654984.399,0,0,0,1.000,1.000,1.000,-90.00,180.00,-31.50,OPEN,0
654984.408,0,0,0,1.000,1.000,1.000,-90.00,180.00,-31.50,OPEN,0
654984.412,0,0,0,1.000,1.000,1.000,-90.00,180.00,-31.50,OPEN,0
654984.418,0,0,0,1.000,1.000,1.000,-90.00,180.00,-31.50,OPEN,0
654984.422,0,0,0,1.000,1.000,1.000,-90.00,180.00,-31.50,OPEN,0
654984.430,0,0,0,1.000,1.000,1.000,-90.00,180.00,-31.50,OPEN,0
654984.437,0,0,0,1.000,1.000,1.000,-90.00,180.00,-31.50,OPEN,0
654984.441,0,0,0,1.000,1.000,1.000,-90.00,180.00,-31.50,OPEN,0
654984.446,0,0,0,1.000,1.000,1.000,-90.00,180.00,-31.50,OPEN,0
654984.450,0,0,0,1.000,1.000,1.000,-90.00,180.00,-31.50,OPEN,0
654984.453,0,0,0,1.000,1.000,1.000,-90.00,180.00,-31.50,OPEN,0
654984.457,0,0,0,1.000,1.000,1.000,-90.00,180.00,-31.50,OPEN,0
654984.463,0,0,0,1.000,1.000,1.000,-90.00,180.00,-31.50,OPEN,0
654984.470,0,0,0,1.000,1.000,1.000,-90.00,180.00,-31.50,OPEN,0
654984.473,0,0,0,1.000,1.000,1.000,-90.00,180.00,-31.50,OPEN,0
654984.478,0,0,0,1.000,1.000,1.000,-90.00,180.00,-31.50,OPEN,0
654984.486,0,0,0,1.000,1.000,1.000,-90.00,180.00,-31.50,OPEN,0
654984.491,0,0,0,1.000,1.000,1.000,-90.00,180.00,-31.50,OPEN,0
654984.496,0,0,0,1.000,1.000,1.000,-90.00,180.00,-31.50,OPEN,0
654984.500,0,0,0,1.000,1.000,1.000,-90.00,180.00,-31.50,OPEN,0
654984.504,0,0,0,0.999,1.000,1.000,-90.00,180.00,-31.50,OPEN,0
654984.508,0,0,0,0.997,1.000,1.000,-90.00,180.00,-31.50,OPEN,0
654984.513,0,0,0,0.997,1.000,1.000,-90.00,180.00,-31.50,OPEN,0
654984.518,0,0,0,0.991,1.000,1.000,-90.00,180.00,-31.50,OPEN,0
654984.522,0,0,0,0.989,1.000,1.000,-90.00,180.00,-31.50,OPEN,0
654984.531,0,0,0,0.999,1.000,1.000,-90.00,180.00,-31.50,OPEN,0
654984.540,0,0,0,1.000,1.000,1.000,-90.00,180.00,-31.50,OPEN,0
654984.548,0,0,0,1.000,1.000,1.000,-90.00,180.00,-31.50,OPEN,0
654984.555,0,0,0,1.000,1.000,1.000,-90.00,180.00,-31.50,OPEN,0
654984.564,0,0,0,1.000,1.000,1.000,-90.00,180.00,-31.50,OPEN,0
654984.570,0,0,0,1.000,1.000,1.000,-90.00,180.00,-31.50,OPEN,0
654984.578,0,0,0,1.000,1.000,1.000,-90.00,180.00,-31.50,OPEN,0
654984.586,0,0,0,1.000,1.000,1.000,-90.00,180.00,-31.50,OPEN,0
654984.593,0,0,0,1.000,1.000,1.000,-90.00,180.00,-31.50,OPEN,0
654984.601,0,0,0,1.000,1.000,1.000,-90.00,180.00,-31.50,OPEN,0
654984.609,0,0,0,1.000,1.000,1.000,-90.00,180.00,-31.50,OPEN,0
654984.616,0,0,0,1.000,1.000,1.000,-90.00,180.00,-31.50,OPEN,0
654984.624,0,0,0,1.000,1.000,1.000,-90.00,180.00,-31.50,OPEN,0
654984.629,0,0,0,1.000,1.000,1.000,-90.00,180.00,-31.50,OPEN,0
654984.633,0,0,0,1.000,1.000,1.000,-90.00,180.00,-31.50,OPEN,0
654984.636,0,0,0,1.000,1.000,1.000,-90.00,180.00,-31.50,OPEN,0
654984.640,0,0,0,1.000,1.000,1.000,-90.00,180.00,-31.50,OPEN,0
654984.644,0,0,0,1.000,1.000,1.000,-90.00,180.00,-31.50,OPEN,0
654984.654,0,0,0,1.000,1.000,1.000,-90.00,180.00,-31.50,OPEN,0
654984.663,0,0,0,1.000,1.000,1.000,-90.00,180.00,-31.50,OPEN,0
654984.668,0,0,0,1.000,1.000,1.000,-90.00,180.00,-31.50,OPEN,0
654984.676,0,0,0,1.000,1.000,1.000,-90.00,180.00,-31.50,OPEN,0
654984.683,0,0,0,1.000,1.000,1.000,-90.00,180.00,-31.50,OPEN,0
654984.691,0,0,0,1.000,1.000,1.000,-90.00,180.00,-31.50,OPEN,0
654984.696,0,0,0,1.000,1.000,1.000,-90.00,180.00,-31.50,OPEN,0
654984.704,0,0,0,1.000,1.000,1.000,-90.00,180.00,-31.50,OPEN,0
654984.708,0,0,0,1.000,1.000,1.000,-90.00,180.00,-31.50,OPEN,0
654984.712,0,0,0,0.863,1.000,1.000,-90.00,180.00,-31.50,OPEN,0
654984.719,0,0,0,0.956,1.000,1.000,-90.00,180.00,-31.50,OPEN,0
654984.723,0,0,0,0.993,1.000,1.000,-90.00,180.00,-31.50,OPEN,0
654984.728,0,0,0,0.993,1.000,1.000,-90.00,180.00,-31.50,OPEN,0
654984.732,0,0,0,0.970,1.000,1.000,-90.00,180.00,-31.50,OPEN,0
654984.736,0,0,0,0.616,1.000,1.000,-90.00,180.00,-31.50,OPEN,0
654984.740,0,0,0,0.909,1.000,1.000,-90.00,180.00,-31.50,OPEN,0
654984.744,0,0,0,0.990,1.000,1.000,-90.00,180.00,-31.50,OPEN,0
654984.749,0,0,0,0.994,1.000,1.000,-90.00,180.00,-31.50,OPEN,0
654984.753,0,0,0,0.995,1.000,1.000,-90.00,180.00,-31.50,OPEN,0
654984.757,0,0,0,0.996,1.000,1.000,-90.00,180.00,-31.50,OPEN,0
654984.762,0,0,0,0.995,1.000,1.000,-90.00,180.00,-31.50,OPEN,0
654984.766,0,0,0,0.993,1.000,1.000,-90.00,180.00,-31.50,OPEN,0
654984.770,3,0,0,0.990,1.000,1.000,-90.00,180.00,-31.50,CLOSED,0
654984.774,3,0,0,0.985,1.000,1.000,-90.00,180.00,-31.50,CLOSED,0
654984.779,3,0,0,0.983,1.000,1.000,-90.00,180.00,-31.50,CLOSED,0
654984.783,3,0,0,0.985,1.000,1.000,-90.00,180.00,-31.50,CLOSED,0
654984.787,3,0,0,0.989,1.000,1.000,-90.00,180.00,-31.50,CLOSED,0
654984.791,3,0,0,0.995,1.000,1.000,-90.00,180.00,-31.50,CLOSED,0
654984.797,3,0,0,0.997,1.000,1.000,-90.00,180.00,-31.50,CLOSED,0
654984.801,3,0,0,0.999,1.000,1.000,-90.00,180.00,-31.50,CLOSED,0
654984.805,3,0,0,0.999,1.000,1.000,-90.00,180.00,-31.50,CLOSED,0
654984.811,3,0,0,1.000,1.000,1.000,-90.00,180.00,-31.50,CLOSED,0
654984.819,3,0,0,1.000,1.000,1.000,-90.00,180.00,-31.50,CLOSED,0
654984.824,3,0,0,1.000,1.000,1.000,-90.00,180.00,-31.50,CLOSED,0
654984.828,3,0,0,1.000,1.000,1.000,-90.00,180.00,-31.50,CLOSED,0
654984.832,3,0,0,1.000,1.000,1.000,-90.00,180.00,-31.50,CLOSED,0
654984.836,3,0,0,1.000,1.000,1.000,-90.00,180.00,-31.50,CLOSED,0
654984.840,3,0,0,1.000,1.000,1.000,-90.00,180.00,-31.50,CLOSED,0
654984.846,3,0,0,1.000,1.000,1.000,-90.00,180.00,-31.50,CLOSED,0
654984.850,3,0,0,1.000,1.000,1.000,-90.00,180.00,-31.50,CLOSED,0
654984.854,3,0,0,1.000,1.000,1.000,-90.00,180.00,-31.50,CLOSED,0
654984.861,3,0,0,1.000,1.000,1.000,-90.00,180.00,-31.50,CLOSED,0
654984.865,3,0,0,1.000,1.000,1.000,-90.00,180.00,-31.50,CLOSED,0
654984.870,3,0,0,1.000,1.000,1.000,-90.00,180.00,-31.50,CLOSED,0
654984.879,3,0,0,1.000,1.000,1.000,-90.00,180.00,-31.50,CLOSED,0
654984.885,3,0,0,1.000,1.000,1.000,-90.00,180.00,-31.50,CLOSED,0
654984.889,3,0,0,1.000,1.000,1.000,-90.00,180.00,-31.50,CLOSED,0
654984.898,3,0,0,0.999,1.000,1.000,-90.00,180.00,-31.50,CLOSED,0
654984.906,3,0,0,0.997,1.000,1.000,-90.00,180.00,-31.50,CLOSED,0
654984.916,3,0,0,0.992,1.000,1.000,-90.00,180.00,-31.50,CLOSED,0
654984.924,3,0,0,0.987,1.000,1.000,-90.00,180.00,-31.50,CLOSED,0
654984.932,3,0,0,0.985,1.000,1.000,-90.00,180.00,-31.50,CLOSED,0
654984.941,3,0,0,0.989,1.000,1.000,-90.00,180.00,-31.50,CLOSED,0
654984.950,3,0,0,0.993,1.000,1.000,-90.00,180.00,-31.50,CLOSED,0
654984.959,3,0,0,0.996,1.000,1.000,-90.00,180.00,-31.50,CLOSED,0
654984.967,3,0,0,0.997,1.000,1.000,-90.00,180.00,-31.50,CLOSED,0
654984.976,3,0,0,0.998,1.000,1.000,-90.00,180.00,-31.50,CLOSED,0
654984.981,3,0,0,0.998,1.000,1.000,-90.00,180.00,-31.50,CLOSED,0
654984.989,3,0,0,0.999,1.000,1.000,-90.00,180.00,-31.50,CLOSED,0
654984.995,3,0,0,0.999,1.000,1.000,-90.00,180.00,-31.50,CLOSED,0
654985.001,3,0,0,0.999,1.000,1.000,-90.00,180.00,-31.50,CLOSED,0
654985.004,3,0,0,1.000,1.000,1.000,-90.00,180.00,-31.50,CLOSED,0
654985.009,3,0,0,1.000,1.000,1.000,-90.00,180.00,-31.50,CLOSED,0
654985.015,3,0,0,1.000,1.000,1.000,-90.00,180.00,-31.50,CLOSED,0
654985.019,3,0,0,1.000,1.000,1.000,-90.00,180.00,-31.50,CLOSED,0
654985.023,3,0,0,1.000,1.000,1.000,-90.00,180.00,-31.50,CLOSED,0
654985.029,3,0,0,1.000,1.000,1.000,-90.00,180.00,-31.50,CLOSED,0
654985.034,3,0,0,1.000,1.000,1.000,-90.00,180.00,-31.50,CLOSED,0
654985.042,3,0,0,1.000,1.000,1.000,-90.00,180.00,-31.50,CLOSED,0
654985.051,3,0,0,1.000,1.000,1.000,-90.00,180.00,-31.50,CLOSED,0
654985.056,3,0,0,1.000,1.000,1.000,-90.00,180.00,-31.50,CLOSED,0
654985.063,3,0,0,1.000,1.000,1.000,-90.00,180.00,-31.50,CLOSED,0
654985.067,3,0,0,1.000,1.000,1.000,-90.00,180.00,-31.50,CLOSED,0
654985.071,3,0,0,1.000,1.000,1.000,-90.00,180.00,-31.50,CLOSED,0
654985.079,3,0,0,1.000,1.000,1.000,-90.00,180.00,-31.50,CLOSED,0
654985.084,3,0,0,1.000,1.000,1.000,-90.00,180.00,-31.50,CLOSED,0
654985.093,3,0,0,1.000,1.000,1.000,-90.00,180.00,-31.50,CLOSED,0
654985.102,3,0,0,1.000,1.000,1.000,-90.00,180.00,-31.50,CLOSED,0
654985.110,3,0,0,1.000,1.000,1.000,-90.00,180.00,-31.50,CLOSED,0
654985.118,3,0,0,1.000,1.000,1.000,-90.00,180.00,-31.50,CLOSED,0
654985.128,3,0,0,1.000,1.000,1.000,-90.00,180.00,-31.50,CLOSED,0
654985.136,3,0,0,1.000,1.000,1.000,-90.00,180.00,-31.50,CLOSED,0
654985.145,3,0,0,1.000,1.000,1.000,-90.00,180.00,-31.50,CLOSED,0
654985.151,3,0,0,1.000,1.000,1.000,-90.00,180.00,-31.50,CLOSED,0
654985.160,3,0,0,1.000,1.000,1.000,-90.00,180.00,-31.50,CLOSED,0
654985.164,3,0,0,1.000,1.000,1.000,-90.00,180.00,-31.50,CLOSED,0
654985.168,3,0,0,1.000,1.000,1.000,-90.00,180.00,-31.50,CLOSED,0
654985.171,3,0,0,1.000,1.000,1.000,-90.00,180.00,-31.50,CLOSED,0
654985.176,3,0,0,1.000,1.000,1.000,-90.00,180.00,-31.50,CLOSED,0
654985.184,3,0,0,1.000,1.000,1.000,-90.00,180.00,-31.50,CLOSED,0
654985.193,3,0,0,1.000,1.000,1.000,-90.00,180.00,-31.50,CLOSED,0
654985.201,3,0,0,1.000,1.000,1.000,-90.00,180.00,-31.50,CLOSED,0
654985.206,3,0,0,1.000,1.000,1.000,-90.00,180.00,-31.50,CLOSED,0
654985.215,3,0,0,1.000,1.000,1.000,-90.00,180.00,-31.50,CLOSED,0
654985.223,3,0,0,1.000,1.000,1.000,-90.00,180.00,-31.50,CLOSED,0
654985.233,3,0,0,1.000,1.000,1.000,-90.00,180.00,-31.50,CLOSED,0
654985.240,3,0,0,1.000,1.000,1.000,-90.00,180.00,-31.50,CLOSED,0
654985.249,3,0,0,1.000,1.000,1.000,-90.00,180.00,-31.50,CLOSED,0
654985.253,3,0,0,1.000,1.000,1.000,-90.00,180.00,-31.50,CLOSED,0
654985.257,3,0,0,1.000,1.000,1.000,-90.00,180.00,-31.50,CLOSED,0
654985.262,3,0,0,1.000,1.000,1.000,-90.00,180.00,-31.50,CLOSED,0
654985.266,3,0,0,1.000,1.000,1.000,-90.00,180.00,-31.50,CLOSED,0
654985.270,3,0,0,1.000,1.000,1.000,-90.00,180.00,-31.50,CLOSED,0
654985.274,3,0,0,1.000,1.000,1.000,-90.00,180.00,-31.50,CLOSED,0
654985.283,3,0,0,1.000,1.000,1.000,-90.00,180.00,-31.50,CLOSED,0
654985.287,3,0,0,1.000,1.000,1.000,-90.00,180.00,-31.50,CLOSED,0
654985.292,3,0,0,1.000,1.000,1.000,-90.00,180.00,-31.50,CLOSED,0
654985.299,3,0,0,1.000,1.000,1.000,-90.00,180.00,-31.50,CLOSED,0
654985.303,3,0,0,1.000,1.000,1.000,-90.00,180.00,-31.50,CLOSED,0
654985.308,3,0,0,1.000,1.000,1.000,-90.00,180.00,-31.50,CLOSED,0
654985.312,3,0,0,1.000,1.000,1.000,-90.00,180.00,-31.50,CLOSED,0
654985.317,3,0,0,1.000,1.000,1.000,-90.00,180.00,-31.50,CLOSED,0
654985.321,3,0,0,1.000,1.000,1.000,-90.00,180.00,-31.50,CLOSED,0
654985.326,3,0,0,1.000,1.000,1.000,-90.00,180.00,-31.50,CLOSED,0
654985.331,3,0,0,1.000,1.000,1.000,-90.00,180.00,-31.50,CLOSED,0
654985.335,3,0,0,0.999,1.000,1.000,-90.00,180.00,-31.50,CLOSED,0
654985.343,3,0,0,0.999,1.000,1.000,-90.00,180.00,-31.50,CLOSED,0
654985.351,3,0,0,0.999,1.000,1.000,-90.00,180.00,-31.50,CLOSED,0
654985.356,3,0,0,1.000,1.000,1.000,-90.00,180.00,-31.50,CLOSED,0
654985.362,3,0,0,1.000,1.000,1.000,-90.00,180.00,-31.50,CLOSED,0
654985.367,3,0,0,1.000,1.000,1.000,-90.00,180.00,-31.50,CLOSED,0
654985.378,3,0,0,1.000,1.000,1.000,-90.00,180.00,-31.50,CLOSED,0
654985.389,3,0,0,1.000,1.000,1.000,-90.00,180.00,-31.50,CLOSED,0
654985.399,3,0,0,1.000,1.000,1.000,-90.00,180.00,-31.50,CLOSED,0
654985.409,3,0,0,1.000,1.000,1.000,-90.00,180.00,-31.50,CLOSED,0
654985.417,3,0,0,1.000,1.000,1.000,-90.00,180.00,-31.50,CLOSED,0
654985.426,3,0,0,1.000,1.000,1.000,-90.00,180.00,-31.50,CLOSED,0
654985.435,3,0,0,1.000,1.000,1.000,-90.00,180.00,-31.50,CLOSED,0
654985.444,3,0,0,1.000,1.000,1.000,-90.00,180.00,-31.50,CLOSED,0
654985.452,3,0,0,1.000,1.000,1.000,-90.00,180.00,-31.50,CLOSED,0
654985.460,3,0,0,1.000,1.000,1.000,-90.00,180.00,-31.50,CLOSED,0
654985.465,3,0,0,1.000,1.000,1.000,-90.00,180.00,-31.50,CLOSED,0
654985.468,3,0,0,1.000,1.000,1.000,-90.00,180.00,-31.50,CLOSED,0
654985.473,3,0,0,1.000,1.000,1.000,-90.00,180.00,-31.50,CLOSED,0
654985.477,3,0,0,0.984,1.000,1.000,-90.00,180.00,-31.50,CLOSED,0
654985.481,3,0,0,0.751,1.000,1.000,-90.00,180.00,-31.50,CLOSED,0
654985.485,3,0,0,0.676,1.000,1.000,-90.00,180.00,-31.50,CLOSED,0
654985.491,3,0,0,0.897,1.000,1.000,-90.00,180.00,-31.50,CLOSED,0
654985.502,3,0,0,0.933,1.000,1.000,-90.00,180.00,-31.50,CLOSED,0
654985.508,3,0,0,0.995,1.000,1.000,-90.00,180.00,-31.50,CLOSED,0
654985.513,3,0,0,1.000,1.000,1.000,-90.00,180.00,-31.50,CLOSED,0
654985.518,3,0,0,1.000,1.000,1.000,-90.00,180.00,-31.50,CLOSED,0
654985.528,3,0,0,1.000,1.000,1.000,-90.00,180.00,-31.50,CLOSED,0
654985.533,3,0,0,1.000,1.000,1.000,-90.00,180.00,-31.50,CLOSED,0
654985.538,0,0,0,1.000,1.000,1.000,-90.00,180.00,-31.50,CLOSED,0
654985.545,0,0,0,1.000,1.000,1.000,-90.00,180.00,-31.50,CLOSED,0
654985.554,0,0,0,1.000,1.000,1.000,-90.00,180.00,-31.50,CLOSED,0
654985.558,0,0,0,1.000,1.000,1.000,-90.00,180.00,-31.50,CLOSED,0
654985.565,0,0,0,1.000,1.000,1.000,-90.00,180.00,-31.50,CLOSED,0
654985.574,0,0,0,1.000,1.000,1.000,-90.00,180.00,-31.50,CLOSED,0
654985.579,0,0,0,1.000,1.000,1.000,-90.00,180.00,-31.50,CLOSED,0
654985.587,0,0,0,1.000,1.000,1.000,-90.00,180.00,-31.50,CLOSED,0
654985.596,0,0,0,1.000,1.000,1.000,-90.00,180.00,-31.50,CLOSED,0
654985.603,0,0,0,1.000,1.000,1.000,-90.00,180.00,-31.50,CLOSED,0
654985.613,0,0,0,1.000,1.000,1.000,-90.00,180.00,-31.50,CLOSED,0
654985.617,0,0,0,1.000,1.000,1.000,-90.00,180.00,-31.50,CLOSED,0
654985.622,0,0,0,1.000,1.000,1.000,-90.00,180.00,-31.50,CLOSED,0
654985.626,0,0,0,1.000,1.000,1.000,-90.00,180.00,-31.50,CLOSED,0
654985.634,0,0,0,1.000,1.000,1.000,-90.00,180.00,-31.50,CLOSED,0
654985.641,0,0,0,1.000,1.000,1.000,-90.00,180.00,-31.50,CLOSED,0
654985.645,0,0,0,1.000,1.000,1.000,-90.00,180.00,-31.50,CLOSED,0
654985.649,0,0,0,1.000,1.000,1.000,-90.00,180.00,-31.50,CLOSED,0
654985.655,0,0,0,1.000,1.000,1.000,-90.00,180.00,-31.50,CLOSED,0
654985.659,0,0,0,1.000,1.000,1.000,-90.00,180.00,-31.50,CLOSED,0
654985.663,0,0,0,1.000,1.000,1.000,-90.00,180.00,-31.50,CLOSED,0
654985.667,0,0,0,1.000,1.000,1.000,-90.00,180.00,-31.50,CLOSED,0
654985.671,0,0,0,1.000,1.000,1.000,-90.00,180.00,-31.50,CLOSED,0
654985.677,0,0,0,1.000,1.000,1.000,-90.00,180.00,-31.50,CLOSED,0
654985.682,0,0,0,1.000,1.000,1.000,-90.00,180.00,-31.50,CLOSED,0
654985.687,0,0,0,1.000,1.000,1.000,-90.00,180.00,-31.50,CLOSED,0
654985.694,0,0,0,1.000,1.000,1.000,-90.00,180.00,-31.50,CLOSED,0
654985.701,0,0,0,1.000,1.000,1.000,-90.00,180.00,-31.50,CLOSED,0
654985.709,0,0,0,1.000,1.000,1.000,-90.00,180.00,-31.50,CLOSED,0
654985.721,0,0,0,1.000,1.000,1.000,-90.00,180.00,-31.50,CLOSED,0
654985.726,0,0,0,1.000,1.000,1.000,-90.00,180.00,-31.50,CLOSED,0
654985.732,0,0,0,1.000,1.000,1.000,-90.00,180.00,-31.50,CLOSED,0
654985.736,0,0,0,1.000,1.000,1.000,-90.00,180.00,-31.50,CLOSED,0
654985.740,0,0,0,1.000,1.000,1.000,-90.00,180.00,-31.50,CLOSED,0
654985.745,0,0,0,1.000,1.000,1.000,-90.00,180.00,-31.50,CLOSED,0
654985.750,0,0,0,1.000,1.000,1.000,-90.00,180.00,-31.50,CLOSED,0
654985.754,0,0,0,1.000,1.000,1.000,-90.00,180.00,-31.50,CLOSED,0
654985.758,0,0,0,1.000,1.000,1.000,-90.00,180.00,-31.50,CLOSED,0
654985.763,0,0,0,1.000,1.000,1.000,-90.00,180.00,-31.50,CLOSED,0
654985.768,0,0,0,1.000,1.000,1.000,-90.00,180.00,-31.50,CLOSED,0
654985.772,0,0,0,1.000,1.000,1.000,-90.00,180.00,-31.50,CLOSED,0
654985.777,0,0,0,1.000,1.000,1.000,-90.00,180.00,-31.50,CLOSED,0
654985.782,0,0,0,1.000,1.000,1.000,-90.00,180.00,-31.50,CLOSED,0
654985.787,0,0,0,1.000,1.000,1.000,-90.00,180.00,-31.50,CLOSED,0
654985.791,0,0,0,1.000,1.000,1.000,-90.00,180.00,-31.50,CLOSED,0
654985.796,0,0,0,1.000,1.000,1.000,-90.00,180.00,-31.50,CLOSED,0
654985.800,0,0,0,1.000,1.000,1.000,-90.00,180.00,-31.50,CLOSED,0
654985.804,0,0,0,1.000,1.000,1.000,-90.00,180.00,-31.50,CLOSED,0
654985.809,0,0,0,1.000,1.000,1.000,-90.00,180.00,-31.50,CLOSED,0
654985.814,0,0,0,1.000,1.000,1.000,-90.00,180.00,-31.50,CLOSED,0
654985.818,0,0,0,1.000,1.000,1.000,-90.00,180.00,-31.50,CLOSED,0
654985.822,0,0,0,1.000,1.000,1.000,-90.00,180.00,-31.50,CLOSED,0
654985.827,0,0,0,1.000,1.000,1.000,-90.00,180.00,-31.50,CLOSED,0
654985.831,0,0,0,1.000,1.000,1.000,-90.00,180.00,-31.50,CLOSED,0
654985.839,0,0,0,1.000,1.000,1.000,-90.00,180.00,-31.50,CLOSED,0
654985.843,0,0,0,1.000,1.000,1.000,-90.00,180.00,-31.50,CLOSED,0
654985.847,0,0,0,1.000,1.000,1.000,-90.00,180.00,-31.50,CLOSED,0
654985.851,0,0,0,1.000,1.000,1.000,-90.00,180.00,-31.50,CLOSED,0
654985.855,0,0,0,1.000,1.000,1.000,-90.00,180.00,-31.50,CLOSED,0
654985.860,0,0,0,1.000,1.000,1.000,-90.00,180.00,-31.50,CLOSED,0
654985.864,0,0,0,1.000,1.000,1.000,-90.00,180.00,-31.50,CLOSED,0
654985.869,0,0,0,1.000,1.000,1.000,-90.00,180.00,-31.50,CLOSED,0
654985.874,0,0,0,1.000,1.000,1.000,-90.00,180.00,-31.50,CLOSED,0
654985.886,0,0,0,1.000,1.000,1.000,-90.00,180.00,-31.50,CLOSED,0
654985.895,0,0,0,1.000,1.000,1.000,-90.00,180.00,-31.50,CLOSED,0
654985.904,0,0,0,1.000,1.000,1.000,-90.00,180.00,-31.50,CLOSED,0
654985.912,0,0,0,1.000,1.000,1.000,-90.00,180.00,-31.50,CLOSED,0
654985.918,0,0,0,1.000,1.000,1.000,-90.00,180.00,-31.50,CLOSED,0
654985.923,0,0,0,1.000,1.000,1.000,-90.00,180.00,-31.50,CLOSED,0
654985.933,0,0,0,1.000,1.000,1.000,-90.00,180.00,-31.50,CLOSED,0
654985.941,0,0,0,1.000,1.000,1.000,-90.00,180.00,-31.50,CLOSED,0
654985.950,0,0,0,1.000,1.000,1.000,-90.00,180.00,-31.50,CLOSED,0
654985.958,0,0,0,1.000,1.000,1.000,-90.00,180.00,-31.50,CLOSED,0
654985.967,0,0,0,1.000,1.000,1.000,-90.00,180.00,-31.50,CLOSED,0
654985.971,0,0,0,1.000,1.000,1.000,-90.00,180.00,-31.50,CLOSED,0
654985.975,0,0,0,1.000,1.000,1.000,-90.00,180.00,-31.50,CLOSED,0
654985.980,0,0,0,1.000,1.000,1.000,-90.00,180.00,-31.50,CLOSED,0
654985.984,0,0,0,1.000,1.000,1.000,-90.00,180.00,-31.50,CLOSED,0
654985.989,0,0,0,1.000,1.000,1.000,-90.00,180.00,-31.50,CLOSED,0
654985.996,0,0,0,1.000,1.000,1.000,-90.00,180.00,-31.50,CLOSED,0
654986.002,0,0,0,1.000,1.000,1.000,-90.00,180.00,-31.50,CLOSED,0
654986.010,0,0,0,1.000,1.000,1.000,-90.00,180.00,-31.50,CLOSED,0
654986.020,0,0,0,1.000,1.000,1.000,-90.00,180.00,-31.50,CLOSED,0
654986.024,0,0,0,1.000,1.000,1.000,-90.00,180.00,-31.50,CLOSED,0
654986.031,0,0,0,1.000,1.000,1.000,-90.00,180.00,-31.50,CLOSED,0
654986.035,0,0,0,1.000,1.000,1.000,-90.00,180.00,-31.50,CLOSED,0
654986.040,0,0,0,1.000,1.000,1.000,-90.00,180.00,-31.50,CLOSED,0
654986.044,0,0,0,1.000,1.000,1.000,-90.00,180.00,-31.50,CLOSED,0
654986.053,0,0,0,1.000,1.000,1.000,-90.00,180.00,-31.50,CLOSED,0
654986.061,0,0,0,1.000,1.000,1.000,-90.00,180.00,-31.50,CLOSED,0
654986.065,0,0,0,1.000,1.000,1.000,-90.00,180.00,-31.50,CLOSED,0
654986.069,0,0,0,1.000,1.000,1.000,-90.00,180.00,-31.50,CLOSED,0
654986.073,0,0,0,1.000,1.000,1.000,-90.00,180.00,-31.50,CLOSED,0
654986.079,0,0,0,1.000,1.000,1.000,-90.00,180.00,-31.50,CLOSED,0
654986.087,0,0,0,1.000,1.000,1.000,-90.00,180.00,-31.50,CLOSED,0
654986.095,0,0,0,1.000,1.000,1.000,-90.00,180.00,-31.50,CLOSED,0
654986.103,0,0,0,1.000,1.000,1.000,-90.00,180.00,-31.50,CLOSED,0
654986.112,0,0,0,1.000,1.000,1.000,-90.00,180.00,-31.50,CLOSED,0
654986.119,0,0,0,1.000,1.000,1.000,-90.00,180.00,-31.50,CLOSED,0
654986.122,0,0,0,1.000,1.000,1.000,-90.00,180.00,-31.50,CLOSED,0
654986.127,0,0,0,1.000,1.000,1.000,-90.00,180.00,-31.50,CLOSED,0
654986.131,0,0,0,1.000,1.000,1.000,-90.00,180.00,-31.50,CLOSED,0
654986.136,0,0,0,1.000,1.000,1.000,-90.00,180.00,-31.50,CLOSED,0
654986.141,0,0,0,1.000,1.000,1.000,-90.00,180.00,-31.50,CLOSED,0
654986.146,0,0,0,1.000,1.000,1.000,-90.00,180.00,-31.50,CLOSED,0
654986.150,0,0,0,1.000,1.000,1.000,-90.00,180.00,-31.50,CLOSED,0
654986.155,0,0,0,1.000,1.000,1.000,-90.00,180.00,-31.50,CLOSED,0
654986.160,0,0,0,1.000,1.000,1.000,-90.00,180.00,-31.50,CLOSED,0
654986.164,0,0,0,1.000,1.000,1.000,-90.00,180.00,-31.50,CLOSED,0
654986.173,0,0,0,1.000,1.000,1.000,-90.00,180.00,-31.50,CLOSED,0
654986.178,0,0,0,1.000,1.000,1.000,-90.00,180.00,-31.50,CLOSED,0
654986.182,0,0,0,1.000,1.000,1.000,-90.00,180.00,-31.50,CLOSED,0
654986.186,0,0,0,1.000,1.000,1.000,-90.00,180.00,-31.50,CLOSED,0
654986.191,0,0,0,1.000,1.000,1.000,-90.00,180.00,-31.50,CLOSED,0
654986.195,0,0,0,1.000,1.000,1.000,-90.00,180.00,-31.50,CLOSED,0
654986.199,0,0,0,1.000,1.000,1.000,-90.00,180.00,-31.50,CLOSED,0
654986.204,0,0,0,1.000,1.000,1.000,-90.00,180.00,-31.50,CLOSED,0
654986.208,0,0,0,1.000,1.000,1.000,-90.00,180.00,-31.50,CLOSED,0
654986.215,0,0,0,1.000,1.000,1.000,-90.00,180.00,-31.50,CLOSED,0
654986.220,0,0,0,1.000,1.000,1.000,-90.00,180.00,-31.50,CLOSED,0
654986.224,0,0,0,1.000,1.000,1.000,-90.00,180.00,-31.50,CLOSED,0
654986.230,0,0,0,1.000,1.000,1.000,-90.00,180.00,-31.50,CLOSED,0
654986.240,0,0,0,1.000,1.000,1.000,-90.00,180.00,-31.50,CLOSED,0
654986.247,0,0,0,1.000,1.000,1.000,-90.00,180.00,-31.50,CLOSED,0
654986.252,0,0,0,1.000,1.000,1.000,-90.00,180.00,-31.50,CLOSED,0
654986.256,0,0,0,1.000,1.000,1.000,-90.00,180.00,-31.50,CLOSED,0
654986.260,0,0,0,1.000,1.000,1.000,-90.00,180.00,-31.50,CLOSED,0
654986.264,0,0,0,1.000,1.000,1.000,-90.00,180.00,-31.50,CLOSED,0
654986.268,0,0,0,1.000,1.000,1.000,-90.00,180.00,-31.50,CLOSED,0
654986.273,0,0,0,1.000,1.000,1.000,-90.00,180.00,-31.50,CLOSED,0
654986.278,0,0,0,1.000,1.000,1.000,-90.00,180.00,-31.50,CLOSED,0
654986.285,0,0,0,1.000,1.000,1.000,-90.00,180.00,-31.50,CLOSED,0
654986.291,0,0,0,1.000,1.000,1.000,-90.00,180.00,-31.50,CLOSED,0
654986.298,0,0,0,1.000,1.000,1.000,-90.00,180.00,-31.50,CLOSED,0
654986.304,0,0,0,1.000,1.000,1.000,-90.00,180.00,-31.50,CLOSED,0
654986.308,0,0,0,1.000,1.000,1.000,-90.00,180.00,-31.50,CLOSED,0
654986.313,0,0,0,1.000,1.000,1.000,-90.00,180.00,-31.50,CLOSED,0
654986.318,0,0,0,1.000,1.000,1.000,-90.00,180.00,-31.50,CLOSED,0
654986.322,0,0,0,1.000,1.000,1.000,-90.00,180.00,-31.50,CLOSED,0
654986.326,0,0,0,1.000,1.000,1.000,-90.00,180.00,-31.50,CLOSED,0
654986.332,0,0,0,1.000,1.000,1.000,-90.00,180.00,-31.50,CLOSED,0
654986.337,0,0,0,1.000,1.000,1.000,-90.00,180.00,-31.50,CLOSED,0
654986.341,0,0,0,1.000,1.000,1.000,-90.00,180.00,-31.50,CLOSED,0
654986.346,0,0,0,1.000,1.000,1.000,-90.00,180.00,-31.50,CLOSED,0
654986.350,0,0,0,1.000,1.000,1.000,-90.00,180.00,-31.50,CLOSED,0
654986.354,0,0,0,1.000,1.000,1.000,-90.00,180.00,-31.50,CLOSED,0
654986.362,0,0,0,1.000,1.000,1.000,-90.00,180.00,-31.50,CLOSED,0
654986.366,0,0,0,1.000,1.000,1.000,-90.00,180.00,-31.50,CLOSED,0
654986.370,0,0,0,1.000,1.000,1.000,-90.00,180.00,-31.50,CLOSED,0
654986.374,0,0,0,1.000,1.000,1.000,-90.00,180.00,-31.50,CLOSED,0
654986.380,0,0,0,1.000,1.000,1.000,-90.00,180.00,-31.50,CLOSED,0
654986.386,0,0,0,1.000,1.000,1.000,-90.00,180.00,-31.50,CLOSED,0
654986.395,0,0,0,1.000,1.000,1.000,-90.00,180.00,-31.50,CLOSED,0
654986.401,0,0,0,1.000,1.000,1.000,-90.00,180.00,-31.50,CLOSED,0
654986.406,0,0,0,1.000,1.000,1.000,-90.00,180.00,-31.50,CLOSED,0
654986.411,0,0,0,1.000,1.000,1.000,-90.00,180.00,-31.50,CLOSED,0
654986.416,0,0,0,1.000,1.000,1.000,-90.00,180.00,-31.50,CLOSED,0
654986.420,0,0,0,1.000,1.000,1.000,-90.00,180.00,-31.50,CLOSED,0
654986.424,0,0,0,1.000,1.000,1.000,-90.00,180.00,-31.50,CLOSED,0
654986.429,0,0,0,1.000,1.000,1.000,-90.00,180.00,-31.50,CLOSED,0
654986.434,0,0,0,1.000,1.000,1.000,-90.00,180.00,-31.50,CLOSED,0
654986.439,0,0,0,1.000,1.000,1.000,-90.00,180.00,-31.50,CLOSED,0
654986.444,0,0,0,1.000,1.000,1.000,-90.00,180.00,-31.50,CLOSED,0
654986.449,0,0,0,1.000,1.000,1.000,-90.00,180.00,-31.50,CLOSED,0
654986.454,0,0,0,1.000,1.000,1.000,-90.00,180.00,-31.50,CLOSED,0
654986.459,0,0,0,1.000,1.000,1.000,-90.00,180.00,-31.50,CLOSED,0
654986.466,0,0,0,1.000,1.000,1.000,-90.00,180.00,-31.50,CLOSED,0
654986.474,0,0,0,1.000,1.000,1.000,-90.00,180.00,-31.50,CLOSED,0
654986.482,0,0,0,1.000,1.000,1.000,-90.00,180.00,-31.50,CLOSED,0
654986.492,0,0,0,1.000,1.000,1.000,-90.00,180.00,-31.50,CLOSED,0
654986.505,0,0,0,1.000,1.000,1.000,-90.00,180.00,-31.50,CLOSED,0
654986.525,0,0,0,1.000,1.000,1.000,-90.00,180.00,-31.50,CLOSED,0
654986.540,0,0,0,1.000,1.000,1.000,-90.00,180.00,-31.50,CLOSED,0
654986.550,0,0,0,1.000,1.000,1.000,-90.00,180.00,-31.50,CLOSED,0
654986.561,0,0,0,1.000,1.000,1.000,-90.00,180.00,-31.50,CLOSED,0
654986.570,0,0,0,1.000,1.000,1.000,-90.00,180.00,-31.50,CLOSED,0
654986.579,0,0,0,1.000,1.000,1.000,-90.00,180.00,-31.50,CLOSED,0
654986.588,0,0,0,1.000,1.000,1.000,-90.00,180.00,-31.50,CLOSED,0
654986.597,0,0,0,1.000,1.000,1.000,-90.00,180.00,-31.50,CLOSED,0
654986.602,0,0,0,1.000,1.000,1.000,-90.00,180.00,-31.50,CLOSED,0
654986.605,0,0,0,1.000,1.000,1.000,-90.00,180.00,-31.50,CLOSED,0
654986.610,0,0,0,1.000,1.000,1.000,-90.00,180.00,-31.50,CLOSED,0
654986.614,0,0,0,1.000,1.000,1.000,-90.00,180.00,-31.50,CLOSED,0
654986.618,0,0,0,1.000,1.000,1.000,-90.00,180.00,-31.50,CLOSED,0
654986.623,0,0,0,1.000,1.000,1.000,-90.00,180.00,-31.50,CLOSED,0
654986.627,0,0,0,1.000,1.000,1.000,-90.00,180.00,-31.50,CLOSED,0
654986.631,0,0,0,1.000,1.000,1.000,-90.00,180.00,-31.50,CLOSED,0
654986.636,0,0,0,1.000,1.000,1.000,-90.00,180.00,-31.50,CLOSED,0
654986.640,0,0,0,1.000,1.000,1.000,-90.00,180.00,-31.50,CLOSED,0
654986.646,0,0,0,1.000,1.000,1.000,-90.00,180.00,-31.50,CLOSED,0
654986.650,0,0,0,1.000,1.000,1.000,-90.00,180.00,-31.50,CLOSED,0
654986.654,0,0,0,1.000,1.000,1.000,-90.00,180.00,-31.50,CLOSED,0
654986.661,0,0,0,1.000,1.000,1.000,-90.00,180.00,-31.50,CLOSED,0
654986.670,0,0,0,1.000,1.000,1.000,-90.00,180.00,-31.50,CLOSED,0
654986.682,0,0,0,1.000,1.000,1.000,-90.00,180.00,-31.50,CLOSED,0
654986.687,0,0,0,1.000,1.000,1.000,-90.00,180.00,-31.50,CLOSED,0
654986.692,0,0,0,1.000,1.000,1.000,-90.00,180.00,-31.50,CLOSED,0
654986.700,0,0,0,1.000,1.000,1.000,-90.00,180.00,-31.50,CLOSED,0
654986.704,0,0,0,1.000,1.000,1.000,-90.00,180.00,-31.50,CLOSED,0
654986.708,0,0,0,1.000,1.000,1.000,-90.00,180.00,-31.50,CLOSED,0
654986.713,0,0,0,1.000,1.000,1.000,-90.00,180.00,-31.50,CLOSED,0
654986.717,0,0,0,1.000,1.000,1.000,-90.00,180.00,-31.50,CLOSED,0
654986.721,0,0,0,1.000,1.000,1.000,-90.00,180.00,-31.50,CLOSED,0
654986.725,0,0,0,1.000,1.000,1.000,-90.00,180.00,-31.50,CLOSED,0
654986.730,0,0,0,1.000,1.000,1.000,-90.00,180.00,-31.50,CLOSED,0
654986.733,0,0,0,1.000,1.000,1.000,-90.00,180.00,-31.50,CLOSED,0
654986.738,0,0,0,1.000,1.000,1.000,-90.00,180.00,-31.50,CLOSED,0
654986.741,0,0,0,1.000,1.000,1.000,-90.00,180.00,-31.50,CLOSED,0
654986.745,0,0,0,1.000,1.000,1.000,-90.00,180.00,-31.50,CLOSED,0
654986.751,0,0,0,1.000,1.000,1.000,-90.00,180.00,-31.50,CLOSED,0
654986.758,0,0,0,1.000,1.000,1.000,-90.00,180.00,-31.50,CLOSED,0
654986.764,0,0,0,1.000,1.000,1.000,-90.00,180.00,-31.50,CLOSED,0
654986.769,0,0,0,1.000,1.000,1.000,-90.00,180.00,-31.50,CLOSED,0
654986.774,0,0,0,1.000,1.000,1.000,-90.00,180.00,-31.50,CLOSED,0
654986.779,0,0,0,1.000,1.000,1.000,-90.00,180.00,-31.50,CLOSED,0
654986.784,0,0,0,1.000,1.000,1.000,-90.00,180.00,-31.50,CLOSED,0
654986.794,0,0,0,1.000,1.000,1.000,-90.00,180.00,-31.50,CLOSED,0
654986.803,0,0,0,1.000,1.000,1.000,-90.00,180.00,-31.50,CLOSED,0
654986.807,0,0,0,1.000,1.000,1.000,-90.00,180.00,-31.50,CLOSED,0
654986.812,0,0,0,1.000,1.000,1.000,-90.00,180.00,-31.50,CLOSED,0
654986.816,0,0,0,1.000,1.000,1.000,-90.00,180.00,-31.50,CLOSED,0
654986.820,0,0,0,1.000,1.000,1.000,-90.00,180.00,-31.50,CLOSED,0
654986.824,0,0,0,1.000,1.000,1.000,-90.00,180.00,-31.50,CLOSED,0
654986.829,0,0,0,1.000,1.000,1.000,-90.00,180.00,-31.50,CLOSED,0
654986.838,0,0,0,1.000,1.000,1.000,-90.00,180.00,-31.50,CLOSED,0
654986.842,0,0,0,1.000,1.000,1.000,-90.00,180.00,-31.50,CLOSED,0
654986.850,0,0,0,1.000,1.000,1.000,-90.00,180.00,-31.50,CLOSED,0
654986.855,0,0,0,1.000,1.000,1.000,-90.00,180.00,-31.50,CLOSED,0
654986.859,0,0,0,1.000,1.000,1.000,-90.00,180.00,-31.50,CLOSED,0
654986.863,0,0,0,1.000,1.000,1.000,-90.00,180.00,-31.50,CLOSED,0
654986.871,0,0,0,1.000,1.000,1.000,-90.00,180.00,-31.50,CLOSED,0
654986.877,0,0,0,1.000,1.000,1.000,-90.00,180.00,-31.50,CLOSED,0
654986.881,0,0,0,1.000,1.000,1.000,-90.00,180.00,-31.50,CLOSED,0
654986.886,0,0,0,1.000,1.000,1.000,-90.00,180.00,-31.50,CLOSED,0
654986.891,0,0,0,1.000,1.000,1.000,-90.00,180.00,-31.50,CLOSED,0
654986.899,0,0,0,1.000,1.000,1.000,-90.00,180.00,-31.50,CLOSED,0
654986.908,0,0,0,1.000,1.000,1.000,-90.00,180.00,-31.50,CLOSED,0
654986.917,0,0,0,1.000,1.000,1.000,-90.00,180.00,-31.50,CLOSED,0
654986.926,0,0,0,1.000,1.000,1.000,-90.00,180.00,-31.50,CLOSED,0
654986.934,0,0,0,1.000,1.000,1.000,-90.00,180.00,-31.50,CLOSED,0
654986.941,0,0,0,1.000,1.000,1.000,-90.00,180.00,-31.50,CLOSED,0
654986.949,0,0,0,1.000,1.000,1.000,-90.00,180.00,-31.50,CLOSED,0
654986.959,0,0,0,1.000,1.000,1.000,-90.00,180.00,-31.50,CLOSED,0
654986.968,0,0,0,1.000,1.000,1.000,-90.00,180.00,-31.50,CLOSED,0
654986.977,0,0,0,1.000,1.000,1.000,-90.00,180.00,-31.50,CLOSED,0
654986.986,0,0,0,1.000,1.000,1.000,-90.00,180.00,-31.50,CLOSED,0
654986.995,0,0,0,1.000,1.000,1.000,-90.00,180.00,-31.50,CLOSED,0
654987.004,0,0,0,1.000,1.000,1.000,-90.00,180.00,-31.50,CLOSED,0
654987.008,0,0,0,1.000,1.000,1.000,-90.00,180.00,-31.50,CLOSED,0
654987.012,0,0,0,1.000,1.000,1.000,-90.00,180.00,-31.50,CLOSED,0
654987.016,0,0,0,1.000,1.000,1.000,-90.00,180.00,-31.50,CLOSED,0
654987.023,0,0,0,1.000,1.000,1.000,-90.00,180.00,-31.50,CLOSED,0
654987.027,0,0,0,1.000,1.000,1.000,-90.00,180.00,-31.50,CLOSED,0
654987.031,0,0,0,1.000,1.000,1.000,-90.00,180.00,-31.50,CLOSED,0
654987.036,0,0,0,1.000,1.000,1.000,-90.00,180.00,-31.50,CLOSED,0
654987.040,0,0,0,1.000,1.000,1.000,-90.00,180.00,-31.50,CLOSED,0
654987.045,0,0,0,1.000,1.000,1.000,-90.00,180.00,-31.50,CLOSED,0
654987.049,0,0,0,1.000,1.000,1.000,-90.00,180.00,-31.50,CLOSED,0
654987.053,0,0,0,1.000,1.000,1.000,-90.00,180.00,-31.50,CLOSED,0
654987.057,0,0,0,1.000,1.000,1.000,-90.00,180.00,-31.50,CLOSED,0
654987.062,0,0,0,1.000,1.000,1.000,-90.00,180.00,-31.50,CLOSED,0
654987.066,0,0,0,1.000,1.000,1.000,-90.00,180.00,-31.50,CLOSED,0
654987.071,0,0,0,1.000,1.000,1.000,-90.00,180.00,-31.50,CLOSED,0
654987.079,0,0,0,1.000,1.000,1.000,-90.00,180.00,-31.50,CLOSED,0
654987.084,0,0,0,1.000,1.000,1.000,-90.00,180.00,-31.50,CLOSED,0
654987.088,0,0,0,1.000,1.000,1.000,-90.00,180.00,-31.50,CLOSED,0
654987.092,0,0,0,1.000,1.000,1.000,-90.00,180.00,-31.50,CLOSED,0
654987.097,0,0,0,1.000,1.000,1.000,-90.00,180.00,-31.50,CLOSED,0
654987.102,0,0,0,0.996,1.000,1.000,-90.00,180.00,-31.50,CLOSED,0
654987.107,0,0,0,0.993,1.000,1.000,-90.00,180.00,-31.50,CLOSED,0
654987.113,0,0,0,1.000,1.000,1.000,-90.00,180.00,-31.50,CLOSED,0
654987.118,0,0,0,1.000,1.000,1.000,-90.00,180.00,-31.50,CLOSED,0
654987.122,0,0,0,1.000,1.000,1.000,-90.00,180.00,-31.50,CLOSED,0
654987.126,0,0,0,1.000,1.000,1.000,-90.00,180.00,-31.50,CLOSED,0
654987.131,0,0,0,1.000,1.000,1.000,-90.00,180.00,-31.50,CLOSED,0
654987.140,0,0,0,1.000,1.000,1.000,-90.00,180.00,-31.50,CLOSED,0
654987.146,0,0,0,0.990,1.000,1.000,-90.00,180.00,-31.50,CLOSED,0
654987.150,0,0,0,0.999,1.000,1.000,-90.00,180.00,-31.50,CLOSED,0
654987.155,0,0,0,0.991,1.000,1.000,-90.00,180.00,-31.50,CLOSED,0
654987.159,0,0,0,0.992,1.000,1.000,-90.00,180.00,-31.50,CLOSED,0
654987.164,0,0,0,0.998,1.000,1.000,-90.00,180.00,-31.50,CLOSED,0
654987.168,0,0,0,1.000,1.000,1.000,-90.00,180.00,-31.50,CLOSED,0
654987.172,0,0,0,1.000,1.000,1.000,-90.00,180.00,-31.50,CLOSED,0
654987.176,0,0,0,1.000,1.000,1.000,-90.00,180.00,-31.50,CLOSED,0
654987.181,0,0,0,1.000,1.000,1.000,-90.00,180.00,-31.50,CLOSED,0
654987.190,0,0,0,1.000,1.000,1.000,-90.00,180.00,-31.50,CLOSED,0
654987.197,0,0,0,1.000,1.000,1.000,-90.00,180.00,-31.50,CLOSED,0
654987.205,0,0,0,1.000,1.000,1.000,-90.00,180.00,-31.50,CLOSED,0
654987.210,0,0,0,1.000,1.000,1.000,-90.00,180.00,-31.50,CLOSED,0
654987.216,0,0,0,1.000,1.000,1.000,-90.00,180.00,-31.50,CLOSED,0
654987.222,0,0,0,1.000,1.000,1.000,-90.00,180.00,-31.50,CLOSED,0
654987.231,0,0,0,1.000,1.000,1.000,-90.00,180.00,-31.50,CLOSED,0
654987.239,0,0,0,1.000,1.000,1.000,-90.00,180.00,-31.50,CLOSED,0
654987.248,0,0,0,1.000,1.000,1.000,-90.00,180.00,-31.50,CLOSED,0
654987.256,0,0,0,1.000,1.000,1.000,-90.00,180.00,-31.50,CLOSED,0
654987.264,0,0,0,1.000,1.000,1.000,-90.00,180.00,-31.50,CLOSED,0
654987.270,0,0,0,1.000,1.000,1.000,-90.00,180.00,-31.50,CLOSED,0
654987.278,0,0,0,1.000,1.000,1.000,-90.00,180.00,-31.50,CLOSED,0
654987.286,0,0,0,1.000,1.000,1.000,-90.00,180.00,-31.50,CLOSED,0
654987.294,0,0,0,1.000,1.000,1.000,-90.00,180.00,-31.50,CLOSED,0
654987.299,0,0,0,1.000,1.000,1.000,-90.00,180.00,-31.50,CLOSED,0
654987.306,0,0,0,1.000,1.000,1.000,-90.00,180.00,-31.50,CLOSED,0
654987.313,0,0,0,1.000,1.000,1.000,-90.00,180.00,-31.50,CLOSED,0
654987.322,0,0,0,1.000,1.000,1.000,-90.00,180.00,-31.50,CLOSED,0
654987.327,0,0,0,1.000,1.000,1.000,-90.00,180.00,-31.50,CLOSED,0
654987.333,0,0,0,1.000,1.000,1.000,-90.00,180.00,-31.50,CLOSED,0
654987.337,0,0,0,1.000,1.000,1.000,-90.00,180.00,-31.50,CLOSED,0
654987.342,0,0,0,1.000,1.000,1.000,-90.00,180.00,-31.50,CLOSED,0
654987.347,0,0,0,1.000,1.000,1.000,-90.00,180.00,-31.50,CLOSED,0
654987.352,0,0,0,1.000,1.000,1.000,-90.00,180.00,-31.50,CLOSED,0
654987.357,0,0,0,1.000,1.000,1.000,-90.00,180.00,-31.50,CLOSED,0
654987.364,0,0,0,1.000,1.000,1.000,-90.00,180.00,-31.50,CLOSED,0
654987.368,0,0,0,1.000,1.000,1.000,-90.00,180.00,-31.50,CLOSED,0
654987.372,0,0,0,1.000,1.000,1.000,-90.00,180.00,-31.50,CLOSED,0
654987.376,0,0,0,1.000,1.000,1.000,-90.00,180.00,-31.50,CLOSED,0
654987.381,0,0,0,1.000,1.000,1.000,-90.00,180.00,-31.50,CLOSED,0
654987.386,0,0,0,1.000,1.000,1.000,-90.00,180.00,-31.50,CLOSED,0
654987.391,0,0,0,1.000,1.000,1.000,-90.00,180.00,-31.50,CLOSED,0
654987.402,0,0,0,1.000,1.000,1.000,-90.00,180.00,-31.50,CLOSED,0
654987.406,0,0,0,1.000,1.000,1.000,-90.00,180.00,-31.50,CLOSED,0
654987.411,0,0,0,1.000,1.000,1.000,-90.00,180.00,-31.50,CLOSED,0
654987.416,0,0,0,1.000,1.000,1.000,-90.00,180.00,-31.50,CLOSED,0
654987.420,0,0,0,1.000,1.000,1.000,-90.00,180.00,-31.50,CLOSED,0
654987.425,0,0,0,1.000,1.000,1.000,-90.00,180.00,-31.50,CLOSED,0
654987.429,0,0,0,1.000,1.000,1.000,-90.00,180.00,-31.50,CLOSED,0
654987.434,0,0,0,1.000,1.000,1.000,-90.00,180.00,-31.50,CLOSED,0
654987.438,0,0,0,1.000,1.000,1.000,-90.00,180.00,-31.50,CLOSED,0
654987.444,0,0,0,1.000,1.000,1.000,-90.00,180.00,-31.50,CLOSED,0
654987.450,0,0,0,1.000,1.000,1.000,-90.00,180.00,-31.50,CLOSED,0
654987.454,0,0,0,1.000,1.000,1.000,-90.00,180.00,-31.50,CLOSED,0
654987.459,0,0,0,1.000,1.000,1.000,-90.00,180.00,-31.50,CLOSED,0
654987.464,0,0,0,1.000,1.000,1.000,-90.00,180.00,-31.50,CLOSED,0
654987.468,0,0,0,1.000,1.000,1.000,-90.00,180.00,-31.50,CLOSED,0
654987.474,0,0,0,1.000,1.000,1.000,-90.00,180.00,-31.50,CLOSED,0
654987.480,0,0,0,1.000,1.000,1.000,-90.00,180.00,-31.50,CLOSED,0
654987.487,0,0,0,1.000,1.000,1.000,-90.00,180.00,-31.50,CLOSED,0
654987.493,0,0,0,1.000,1.000,1.000,-90.00,180.00,-31.50,CLOSED,0
654987.500,0,0,0,1.000,1.000,1.000,-90.00,180.00,-31.50,CLOSED,0
654987.507,0,0,0,1.000,1.000,1.000,-90.00,180.00,-31.50,CLOSED,0
654987.513,0,0,0,1.000,1.000,1.000,-90.00,180.00,-31.50,CLOSED,0
654987.520,0,0,0,1.000,1.000,1.000,-90.00,180.00,-31.50,CLOSED,0
654987.526,0,0,0,1.000,1.000,1.000,-90.00,180.00,-31.50,CLOSED,0
654987.535,0,0,0,1.000,1.000,1.000,-90.00,180.00,-31.50,CLOSED,0
654987.540,0,0,0,1.000,1.000,1.000,-90.00,180.00,-31.50,CLOSED,0
654987.546,0,0,0,1.000,1.000,1.000,-90.00,180.00,-31.50,CLOSED,0
654987.550,0,0,0,1.000,1.000,1.000,-90.00,180.00,-31.50,CLOSED,0
654987.554,0,0,0,1.000,1.000,1.000,-90.00,180.00,-31.50,CLOSED,0
654987.560,0,0,0,1.000,1.000,1.000,-90.00,180.00,-31.50,CLOSED,0
654987.570,0,0,0,1.000,1.000,1.000,-90.00,180.00,-31.50,CLOSED,0
654987.577,0,0,0,1.000,1.000,1.000,-90.00,180.00,-31.50,CLOSED,0
654987.582,0,0,0,1.000,1.000,1.000,-90.00,180.00,-31.50,CLOSED,0
654987.586,0,0,0,1.000,1.000,1.000,-90.00,180.00,-31.50,CLOSED,0
654987.591,0,0,0,1.000,1.000,1.000,-90.00,180.00,-31.50,CLOSED,0
654987.596,0,0,0,1.000,1.000,1.000,-90.00,180.00,-31.50,CLOSED,0
654987.602,0,0,0,1.000,1.000,1.000,-90.00,180.00,-31.50,CLOSED,0
654987.611,0,0,0,1.000,1.000,1.000,-90.00,180.00,-31.50,CLOSED,0
654987.625,0,0,0,1.000,1.000,1.000,-90.00,180.00,-31.50,CLOSED,0
654987.632,0,0,0,1.000,1.000,1.000,-90.00,180.00,-31.50,CLOSED,0
654987.637,0,0,0,1.000,1.000,1.000,-90.00,180.00,-31.50,CLOSED,0
654987.642,0,0,0,1.000,1.000,1.000,-90.00,180.00,-31.50,CLOSED,0
654987.647,0,0,0,1.000,1.000,1.000,-90.00,180.00,-31.50,CLOSED,0
654987.653,0,0,0,1.000,1.000,1.000,-90.00,180.00,-31.50,CLOSED,0
654987.658,0,0,0,1.000,1.000,1.000,-90.00,180.00,-31.50,CLOSED,0
654987.664,0,0,0,1.000,1.000,1.000,-90.00,180.00,-31.50,CLOSED,0
654987.670,0,0,0,1.000,1.000,1.000,-90.00,180.00,-31.50,CLOSED,0
654987.677,0,0,0,1.000,1.000,1.000,-90.00,180.00,-31.50,CLOSED,0
654987.683,0,0,0,1.000,1.000,1.000,-90.00,180.00,-31.50,CLOSED,0
654987.688,0,0,0,1.000,1.000,1.000,-90.00,180.00,-31.50,CLOSED,0
654987.694,0,0,0,1.000,1.000,1.000,-90.00,180.00,-31.50,CLOSED,0
654987.702,0,0,0,1.000,1.000,1.000,-90.00,180.00,-31.50,CLOSED,0
654987.706,0,0,0,1.000,1.000,1.000,-90.00,180.00,-31.50,CLOSED,0
654987.711,0,0,0,1.000,1.000,1.000,-90.00,180.00,-31.50,CLOSED,0
654987.715,0,0,0,1.000,1.000,1.000,-90.00,180.00,-31.50,CLOSED,0
654987.719,0,0,0,1.000,1.000,1.000,-90.00,180.00,-31.50,CLOSED,0
654987.725,0,0,0,1.000,1.000,1.000,-90.00,180.00,-31.50,CLOSED,0
654987.732,0,0,0,1.000,1.000,1.000,-90.00,180.00,-31.50,CLOSED,0
654987.737,0,0,0,1.000,1.000,1.000,-90.00,180.00,-31.50,CLOSED,0
654987.741,0,0,0,1.000,1.000,1.000,-90.00,180.00,-31.50,CLOSED,0
654987.745,0,0,0,1.000,1.000,1.000,-90.00,180.00,-31.50,CLOSED,0
654987.750,0,0,0,1.000,1.000,1.000,-90.00,180.00,-31.50,CLOSED,0
654987.759,0,0,0,1.000,1.000,1.000,-90.00,180.00,-31.50,CLOSED,0
654987.764,0,0,0,1.000,1.000,1.000,-90.00,180.00,-31.50,CLOSED,0
654987.769,0,0,0,1.000,1.000,1.000,-90.00,180.00,-31.50,CLOSED,0
654987.774,0,0,0,1.000,1.000,1.000,-90.00,180.00,-31.50,CLOSED,0
654987.781,0,0,0,1.000,1.000,1.000,-90.00,180.00,-31.50,CLOSED,0
654987.787,0,0,0,1.000,1.000,1.000,-90.00,180.00,-31.50,CLOSED,0
654987.793,0,0,0,1.000,1.000,1.000,-90.00,180.00,-31.50,CLOSED,0
654987.803,0,0,0,1.000,1.000,1.000,-90.00,180.00,-31.50,CLOSED,0
654987.811,0,0,0,1.000,1.000,1.000,-90.00,180.00,-31.50,CLOSED,0
654987.818,0,0,0,1.000,1.000,1.000,-90.00,180.00,-31.50,CLOSED,0
654987.823,0,0,0,1.000,1.000,1.000,-90.00,180.00,-31.50,CLOSED,0
654987.828,0,0,0,1.000,1.000,1.000,-90.00,180.00,-31.50,CLOSED,0
654987.833,0,0,0,1.000,1.000,1.000,-90.00,180.00,-31.50,CLOSED,0
654987.836,0,0,0,1.000,1.000,1.000,-90.00,180.00,-31.50,CLOSED,0
654987.840,0,0,0,1.000,1.000,1.000,-90.00,180.00,-31.50,CLOSED,0
654987.845,0,0,0,1.000,1.000,1.000,-90.00,180.00,-31.50,CLOSED,0
654987.850,0,0,0,1.000,1.000,1.000,-90.00,180.00,-31.50,CLOSED,0
654987.854,0,0,0,1.000,1.000,1.000,-90.00,180.00,-31.50,CLOSED,0
654987.858,0,0,0,1.000,1.000,1.000,-90.00,180.00,-31.50,CLOSED,0
654987.863,0,0,0,1.000,1.000,1.000,-90.00,180.00,-31.50,CLOSED,0
654987.867,0,0,0,1.000,1.000,1.000,-90.00,180.00,-31.50,CLOSED,0
654987.871,0,0,0,1.000,1.000,1.000,-90.00,180.00,-31.50,CLOSED,0
654987.876,0,0,0,1.000,1.000,1.000,-90.00,180.00,-31.50,CLOSED,0
654987.882,0,0,0,1.000,1.000,1.000,-90.00,180.00,-31.50,CLOSED,0
654987.888,0,0,0,1.000,1.000,1.000,-90.00,180.00,-31.50,CLOSED,0
654987.897,0,0,0,1.000,1.000,1.000,-90.00,180.00,-31.50,CLOSED,0
654987.902,0,0,0,1.000,1.000,1.000,-90.00,180.00,-31.50,CLOSED,0
654987.906,0,0,0,1.000,1.000,1.000,-90.00,180.00,-31.50,CLOSED,0
654987.914,0,0,0,1.000,1.000,1.000,-90.00,180.00,-31.50,CLOSED,0
654987.922,0,0,0,1.000,0.999,1.000,-90.00,180.00,-31.50,CLOSED,0
654987.931,0,0,0,1.000,0.998,1.000,-90.00,180.00,-31.50,CLOSED,0
654987.939,0,0,0,1.000,0.994,1.000,-90.00,180.00,-31.50,CLOSED,0
654987.946,0,0,0,1.000,0.973,1.000,-90.00,180.00,-31.50,CLOSED,0
654987.954,0,0,0,1.000,0.706,1.000,-90.00,180.00,-31.50,CLOSED,0
654987.961,0,0,0,1.000,0.835,1.000,-90.00,180.00,-31.50,CLOSED,0
654987.965,0,0,0,1.000,0.947,1.000,-90.00,180.00,-31.50,CLOSED,0
654987.969,0,0,0,1.000,0.962,1.000,-90.00,180.00,-31.50,CLOSED,0
654987.975,0,0,0,1.000,0.954,1.000,-90.00,180.00,-31.50,CLOSED,0
654987.981,0,0,0,1.000,0.886,1.000,-90.00,180.00,-31.50,CLOSED,0
654987.985,0,0,0,1.000,0.583,1.000,-90.00,180.00,-31.50,CLOSED,0
654987.989,0,0,0,1.000,0.745,1.000,-90.00,180.00,-31.50,CLOSED,0
654987.995,0,0,0,1.000,0.909,1.000,-90.00,180.00,-31.50,CLOSED,0
654988.007,0,0,0,1.000,0.961,0.999,-90.00,180.00,-31.50,CLOSED,0
654988.027,0,0,0,1.000,0.986,0.998,-90.00,180.00,-31.50,CLOSED,0
654988.043,0,0,0,1.000,0.994,0.997,-90.00,180.00,-31.50,CLOSED,0
654988.055,0,0,0,1.000,0.996,0.996,-90.00,180.00,-31.50,CLOSED,0
654988.059,0,0,0,1.000,0.997,0.995,-90.00,180.00,-31.50,CLOSED,0
654988.066,0,0,0,1.000,0.998,0.995,-90.00,180.00,-31.50,CLOSED,0
654988.071,0,0,0,1.000,0.998,0.994,-90.00,180.00,-31.50,CLOSED,0
654988.075,0,0,0,1.000,0.998,0.994,-90.00,180.00,-31.50,CLOSED,0
654988.083,0,0,0,1.000,0.999,0.992,-90.00,180.00,-31.50,CLOSED,0
654988.087,0,0,0,1.000,0.999,0.987,-90.00,180.00,-31.50,CLOSED,0
654988.092,0,0,0,1.000,0.999,0.979,-90.00,180.00,-31.50,CLOSED,0
654988.098,0,0,0,1.000,0.999,0.969,-90.00,180.00,-31.50,CLOSED,0
654988.102,0,0,0,1.000,1.000,0.968,-90.00,180.00,-31.50,CLOSED,0
654988.110,0,0,0,1.000,1.000,0.970,-90.00,180.00,-31.50,CLOSED,0
654988.116,0,0,0,1.000,1.000,0.976,-90.00,180.00,-31.50,CLOSED,0
654988.123,0,0,0,1.000,1.000,0.979,-90.00,180.00,-31.50,CLOSED,0
654988.130,0,0,0,1.000,0.999,0.980,-90.00,180.00,-31.50,CLOSED,0
654988.138,0,0,0,1.000,0.999,0.982,-90.00,180.00,-31.50,CLOSED,0
654988.146,0,0,0,1.000,0.998,0.983,-90.00,180.00,-31.50,CLOSED,0
654988.154,0,0,0,1.000,0.994,0.979,-90.00,180.00,-31.50,CLOSED,0
654988.162,0,0,0,1.000,0.980,0.973,-90.00,180.00,-31.50,CLOSED,0
654988.171,0,0,0,1.000,0.943,0.951,-90.00,180.00,-31.50,CLOSED,0
654988.177,0,0,0,1.000,0.888,0.924,-90.00,180.00,-31.50,CLOSED,0
654988.185,0,0,0,1.000,0.865,0.897,-90.00,180.00,-31.50,CLOSED,0
654988.198,0,0,0,1.000,0.869,0.887,-90.00,180.00,-31.50,CLOSED,0
654988.212,0,0,0,1.000,0.854,0.901,-90.00,180.00,-31.50,CLOSED,0
654988.224,0,0,0,1.000,0.831,0.929,-90.00,180.00,-31.50,CLOSED,0
654988.230,0,0,0,1.000,0.825,0.960,-90.00,180.00,-31.50,CLOSED,0
654988.235,0,0,0,1.000,0.859,0.977,-90.00,180.00,-31.50,CLOSED,0
654988.240,0,0,0,1.000,0.906,0.988,-90.00,180.00,-31.50,CLOSED,0
654988.245,0,0,0,1.000,0.942,0.992,-90.00,180.00,-31.50,CLOSED,0
654988.254,0,0,0,1.000,0.969,0.995,-90.00,180.00,-31.50,CLOSED,0
654988.263,0,0,0,1.000,0.981,0.997,-90.00,180.00,-31.50,CLOSED,0
654988.268,0,0,0,1.000,0.989,0.998,-90.00,180.00,-31.50,CLOSED,0
654988.272,0,0,0,1.000,0.992,0.998,-90.00,180.00,-31.50,CLOSED,0
654988.276,0,0,0,1.000,0.995,0.998,-90.00,180.00,-31.50,CLOSED,0
654988.280,0,0,0,1.000,0.996,0.998,-90.00,180.00,-31.50,CLOSED,0
654988.287,0,0,0,1.000,0.997,0.998,-90.00,180.00,-31.50,CLOSED,0
654988.296,0,0,0,1.000,0.996,0.997,-90.00,180.00,-31.50,CLOSED,0
654988.302,0,0,0,1.000,0.995,0.996,-90.00,180.00,-31.50,CLOSED,0
654988.309,0,0,0,1.000,0.989,0.994,-90.00,180.00,-31.50,CLOSED,0
654988.318,0,0,0,1.000,0.962,0.989,-90.00,180.00,-31.50,CLOSED,0
654988.329,0,0,0,1.000,0.843,0.982,-90.00,180.00,-31.50,CLOSED,0
654988.335,0,0,0,1.000,0.502,0.973,-90.00,180.00,-31.50,CLOSED,0
654988.341,0,0,0,1.000,0.804,0.970,-90.00,180.00,-31.50,CLOSED,0
654988.352,0,0,0,1.000,0.892,0.972,-90.00,180.00,-31.50,CLOSED,0
654988.361,0,0,0,1.000,0.892,0.979,-90.00,180.00,-31.50,CLOSED,0
654988.366,0,0,0,1.000,0.818,0.984,-90.00,180.00,-31.50,CLOSED,0
654988.371,0,0,0,1.000,0.657,0.989,-90.00,180.00,-31.50,CLOSED,0
654988.375,0,0,0,1.000,0.515,0.990,-90.00,180.00,-31.50,CLOSED,0
654988.384,0,0,0,1.000,0.650,0.990,-90.00,180.00,-31.50,CLOSED,0
654988.388,0,0,0,1.000,0.754,0.989,-90.00,180.00,-31.50,CLOSED,0
654988.393,0,0,0,1.000,0.770,0.988,-90.00,180.00,-31.50,CLOSED,0
654988.398,0,0,0,1.000,0.735,0.985,-90.00,180.00,-31.50,CLOSED,0
654988.403,0,0,0,1.000,0.698,0.983,-90.00,180.00,-31.50,CLOSED,0
654988.409,0,0,0,1.000,0.645,0.984,-90.00,180.00,-31.50,CLOSED,0
654988.415,0,0,0,1.000,0.608,0.985,-90.00,180.00,-31.50,CLOSED,0
654988.420,0,0,0,1.000,0.618,0.989,-90.00,180.00,-31.50,CLOSED,0
654988.425,0,0,0,1.000,0.718,0.990,-90.00,180.00,-31.50,CLOSED,0
654988.430,0,0,0,1.000,0.775,0.992,-90.00,180.00,-31.50,CLOSED,0
654988.435,0,0,0,1.000,0.844,0.990,-90.00,180.00,-31.50,CLOSED,0
654988.440,0,0,0,1.000,0.898,0.991,-90.00,180.00,-31.50,CLOSED,0
654988.446,0,0,0,1.000,0.915,0.989,-90.00,180.00,-31.50,CLOSED,0
654988.452,0,0,0,1.000,0.913,0.986,-90.00,180.00,-31.50,CLOSED,0
654988.457,0,0,0,1.000,0.908,0.983,-90.00,180.00,-31.50,CLOSED,0
654988.466,0,0,0,1.000,0.883,0.972,-90.00,180.00,-31.50,CLOSED,0
654988.470,0,0,0,1.000,0.875,0.955,-90.00,180.00,-31.50,CLOSED,0
654988.474,0,0,0,1.000,0.937,0.949,-90.00,180.00,-31.50,CLOSED,0
654988.480,0,0,0,1.000,0.978,0.950,-90.00,180.00,-31.50,CLOSED,0
654988.484,0,0,0,1.000,0.992,0.962,-90.00,180.00,-31.50,CLOSED,0
654988.488,0,0,0,1.000,0.996,0.970,-90.00,180.00,-31.50,CLOSED,0
654988.493,0,0,0,1.000,0.997,0.974,-90.00,180.00,-31.50,CLOSED,0
654988.503,0,0,0,1.000,0.998,0.978,-90.00,180.00,-31.50,CLOSED,0
654988.512,0,0,0,1.000,0.998,0.979,-90.00,180.00,-31.50,CLOSED,0
654988.526,0,0,0,1.000,0.997,0.977,-90.00,180.00,-31.50,CLOSED,0
654988.535,0,0,0,1.000,0.994,0.975,-90.00,180.00,-31.50,CLOSED,0
654988.543,0,0,0,1.000,0.987,0.974,-90.00,180.00,-31.50,CLOSED,0
654988.549,0,0,0,1.000,0.955,0.970,-90.00,180.00,-31.50,CLOSED,0
654988.557,0,0,0,1.000,0.852,0.962,-90.00,180.00,-31.50,CLOSED,0
654988.562,0,0,0,1.000,0.690,0.959,-90.00,180.00,-31.50,CLOSED,0
654988.566,0,0,0,1.000,0.531,0.957,-90.00,180.00,-31.50,CLOSED,0
654988.572,0,0,0,1.000,0.596,0.954,-90.00,180.00,-31.50,CLOSED,0
654988.581,0,0,0,1.000,0.509,0.960,-90.00,180.00,-31.50,CLOSED,0
654988.587,0,0,0,1.000,0.617,0.963,-90.00,180.00,-31.50,CLOSED,0
654988.593,0,0,0,1.000,0.725,0.964,-90.00,180.00,-31.50,CLOSED,0
654988.603,0,0,0,1.000,0.760,0.968,-90.00,180.00,-31.50,CLOSED,0
654988.613,0,0,0,1.000,0.755,0.971,-90.00,180.00,-31.50,CLOSED,0
654988.617,0,0,0,1.000,0.711,0.976,-90.00,180.00,-31.50,CLOSED,0
654988.622,0,0,0,1.000,0.637,0.980,-90.00,180.00,-31.50,CLOSED,0
654988.627,0,0,0,1.000,0.555,0.980,-90.00,180.00,-31.50,CLOSED,0
654988.632,0,0,0,1.000,0.519,0.983,-90.00,180.00,-31.50,CLOSED,0
654988.637,0,0,0,1.000,0.550,0.983,-90.00,180.00,-31.50,CLOSED,0
654988.641,0,0,0,1.000,0.720,0.981,-90.00,180.00,-31.50,CLOSED,0
654988.646,0,0,0,1.000,0.863,0.972,-90.00,180.00,-31.50,CLOSED,0
654988.651,0,0,0,1.000,0.956,0.953,-90.00,180.00,-31.50,CLOSED,0
654988.656,0,0,0,1.000,0.980,0.932,-90.00,180.00,-31.50,CLOSED,0
654988.663,0,0,0,1.000,0.987,0.903,-90.00,180.00,-31.50,CLOSED,0
654988.672,0,0,0,1.000,0.988,0.892,-90.00,180.00,-31.50,CLOSED,0
654988.677,0,0,0,1.000,0.986,0.895,-90.00,180.00,-31.50,CLOSED,0
654988.683,0,0,0,1.000,0.977,0.924,-90.00,180.00,-31.50,CLOSED,0
654988.687,0,0,0,1.000,0.950,0.968,-90.00,180.00,-31.50,CLOSED,0
654988.692,0,0,0,1.000,0.926,0.987,-90.00,180.00,-31.50,CLOSED,0
654988.701,0,0,0,1.000,0.941,0.996,-90.00,180.00,-31.50,CLOSED,0
654988.710,0,0,0,1.000,0.975,0.999,-90.00,180.00,-31.50,CLOSED,0
654988.714,0,0,0,1.000,0.987,0.999,-90.00,180.00,-31.50,CLOSED,0
654988.718,0,0,0,1.000,0.995,0.999,-90.00,180.00,-31.50,CLOSED,0
654988.723,0,0,0,1.000,0.999,0.999,-90.00,180.00,-31.50,CLOSED,0
654988.728,0,0,0,1.000,1.000,0.999,-90.00,180.00,-31.50,CLOSED,0
654988.732,0,0,0,1.000,1.000,0.999,-90.00,180.00,-31.50,CLOSED,0
654988.739,0,0,0,1.000,1.000,0.999,-90.00,180.00,-31.50,CLOSED,0
654988.745,0,0,0,1.000,1.000,1.000,-90.00,180.00,-31.50,CLOSED,0
654988.755,0,0,0,1.000,1.000,1.000,-90.00,180.00,-31.50,CLOSED,0
654988.760,0,0,0,1.000,1.000,1.000,-90.00,180.00,-31.50,CLOSED,0
654988.765,0,0,0,1.000,1.000,1.000,-90.00,180.00,-31.50,CLOSED,0
654988.769,0,0,0,1.000,0.998,1.000,-90.00,180.00,-31.50,CLOSED,0
654988.773,0,0,0,0.999,0.998,1.000,-90.00,180.00,-31.50,CLOSED,0
654988.778,0,0,0,0.999,0.998,1.000,-90.00,180.00,-31.50,CLOSED,0
654988.783,0,0,0,0.999,0.999,1.000,-90.00,180.00,-31.50,CLOSED,0
654988.793,0,0,0,1.000,1.000,1.000,-90.00,180.00,-31.50,CLOSED,0
654988.799,0,0,0,1.000,1.000,1.000,-90.00,180.00,-31.50,CLOSED,0
654988.804,0,0,0,1.000,1.000,1.000,-90.00,180.00,-31.50,CLOSED,0
654988.811,0,0,0,1.000,1.000,1.000,-90.00,180.00,-31.50,CLOSED,0
654988.820,0,0,0,1.000,1.000,1.000,-90.00,180.00,-31.50,CLOSED,0
654988.824,0,0,0,1.000,1.000,1.000,-90.00,180.00,-31.50,CLOSED,0
654988.829,0,0,0,1.000,1.000,1.000,-90.00,180.00,-31.50,CLOSED,0
654988.834,0,0,0,1.000,1.000,1.000,-90.00,180.00,-31.50,CLOSED,0
654988.846,0,0,0,1.000,1.000,1.000,-90.00,180.00,-31.50,CLOSED,0
654988.852,0,0,0,1.000,1.000,1.000,-90.00,180.00,-31.50,CLOSED,0
654988.859,0,0,0,1.000,1.000,1.000,-90.00,180.00,-31.50,CLOSED,0
654988.869,0,0,0,1.000,1.000,1.000,-90.00,180.00,-31.50,CLOSED,0
654988.875,0,0,0,1.000,1.000,1.000,-90.00,180.00,-31.50,CLOSED,0
654988.881,0,0,0,1.000,1.000,1.000,-90.00,180.00,-31.50,CLOSED,0
654988.886,0,0,0,1.000,1.000,1.000,-90.00,180.00,-31.50,CLOSED,0
654988.890,0,0,0,1.000,1.000,1.000,-90.00,180.00,-31.50,CLOSED,0
654988.895,0,0,0,1.000,1.000,1.000,-90.00,180.00,-31.50,CLOSED,0
654988.900,0,0,0,1.000,1.000,1.000,-90.00,180.00,-31.50,CLOSED,0
654988.909,0,0,0,1.000,1.000,1.000,-90.00,180.00,-31.50,CLOSED,0
654988.920,0,0,0,1.000,1.000,1.000,-90.00,180.00,-31.50,CLOSED,0
654988.927,0,0,0,1.000,1.000,1.000,-90.00,180.00,-31.50,CLOSED,0
654988.934,0,0,0,1.000,1.000,1.000,-90.00,180.00,-31.50,CLOSED,0
654988.942,0,0,0,1.000,1.000,1.000,-90.00,180.00,-31.50,CLOSED,0
654988.950,0,0,0,1.000,1.000,1.000,-90.00,180.00,-31.50,CLOSED,0
654988.954,0,0,0,1.000,1.000,1.000,-90.00,180.00,-31.50,CLOSED,0
654988.962,0,0,0,1.000,1.000,1.000,-90.00,180.00,-31.50,CLOSED,0
654988.974,0,0,0,1.000,1.000,1.000,-90.00,180.00,-31.50,CLOSED,0
654988.986,0,0,0,1.000,1.000,1.000,-90.00,180.00,-31.50,CLOSED,0
654988.996,0,0,0,1.000,1.000,1.000,-90.00,180.00,-31.50,CLOSED,0
654989.005,0,0,0,1.000,1.000,1.000,-90.00,180.00,-31.50,CLOSED,0
654989.013,0,0,0,1.000,1.000,1.000,-90.00,180.00,-31.50,CLOSED,0
654989.019,0,0,0,1.000,1.000,1.000,-90.00,180.00,-31.50,CLOSED,0
654989.024,0,0,0,1.000,1.000,1.000,-90.00,180.00,-31.50,CLOSED,0
654989.030,0,0,0,1.000,1.000,1.000,-90.00,180.00,-31.50,CLOSED,0
654989.041,0,0,0,1.000,1.000,1.000,-90.00,180.00,-31.50,CLOSED,0
654989.047,0,0,0,1.000,1.000,1.000,-90.00,180.00,-31.50,CLOSED,0
654989.051,0,0,0,1.000,1.000,1.000,-90.00,180.00,-31.50,CLOSED,0
654989.056,0,0,0,1.000,1.000,1.000,-90.00,180.00,-31.50,CLOSED,0
654989.061,0,0,0,1.000,1.000,1.000,-90.00,180.00,-31.50,CLOSED,0
654989.070,0,0,0,1.000,1.000,1.000,-90.00,180.00,-31.50,CLOSED,0
654989.079,0,0,0,1.000,1.000,1.000,-90.00,180.00,-31.50,CLOSED,0
654989.095,0,0,0,1.000,1.000,1.000,-90.00,180.00,-31.50,CLOSED,0
654989.108,0,0,0,1.000,1.000,1.000,-90.00,180.00,-31.50,CLOSED,0
654989.116,0,0,0,1.000,1.000,1.000,-90.00,180.00,-31.50,CLOSED,0
654989.125,0,0,0,1.000,1.000,1.000,-90.00,180.00,-31.50,CLOSED,0
654989.132,0,0,0,1.000,1.000,1.000,-90.00,180.00,-31.50,CLOSED,0
654989.142,0,0,0,1.000,1.000,1.000,-90.00,180.00,-31.50,CLOSED,0
654989.151,0,0,0,1.000,1.000,1.000,-90.00,180.00,-31.50,CLOSED,0
654989.160,0,0,0,1.000,1.000,1.000,-90.00,180.00,-31.50,CLOSED,0
654989.170,0,0,0,1.000,1.000,1.000,-90.00,180.00,-31.50,CLOSED,0
654989.179,0,0,0,1.000,1.000,1.000,-90.00,180.00,-31.50,CLOSED,0
654989.188,0,0,0,1.000,1.000,1.000,-90.00,180.00,-31.50,CLOSED,0
654989.197,0,0,0,1.000,1.000,1.000,-90.00,180.00,-31.50,CLOSED,0
654989.205,0,0,0,1.000,1.000,1.000,-90.00,180.00,-31.50,CLOSED,0
654989.213,0,0,0,1.000,1.000,1.000,-90.00,180.00,-31.50,CLOSED,0
654989.222,0,0,0,1.000,1.000,1.000,-90.00,180.00,-31.50,CLOSED,0
654989.231,0,0,0,1.000,1.000,1.000,-90.00,180.00,-31.50,CLOSED,0
654989.240,0,0,0,1.000,1.000,1.000,-90.00,180.00,-31.50,CLOSED,0
654989.249,0,0,0,1.000,1.000,1.000,-90.00,180.00,-31.50,CLOSED,0
654989.257,0,0,0,1.000,1.000,1.000,-90.00,180.00,-31.50,CLOSED,0
654989.264,0,0,0,1.000,1.000,1.000,-90.00,180.00,-31.50,CLOSED,0
654989.271,0,0,0,1.000,1.000,1.000,-90.00,180.00,-31.50,CLOSED,0
654989.277,0,0,0,1.000,1.000,1.000,-90.00,180.00,-31.50,CLOSED,0
654989.283,0,0,0,1.000,1.000,1.000,-90.00,180.00,-31.50,CLOSED,0
654989.288,0,0,0,1.000,1.000,1.000,-90.00,180.00,-31.50,CLOSED,0
654989.292,0,0,0,1.000,1.000,1.000,-90.00,180.00,-31.50,CLOSED,0
654989.297,0,0,0,1.000,1.000,1.000,-90.00,180.00,-31.50,CLOSED,0
654989.302,0,0,0,1.000,1.000,1.000,-90.00,180.00,-31.50,CLOSED,0
654989.306,0,0,0,1.000,1.000,1.000,-90.00,180.00,-31.50,CLOSED,0
654989.311,0,0,0,1.000,1.000,1.000,-90.00,180.00,-31.50,CLOSED,0
654989.316,0,0,0,1.000,1.000,1.000,-90.00,180.00,-31.50,CLOSED,0
654989.320,0,0,0,1.000,1.000,1.000,-90.00,180.00,-31.50,CLOSED,0
654989.324,0,0,0,1.000,1.000,1.000,-90.00,180.00,-31.50,CLOSED,0
654989.334,0,0,0,1.000,1.000,1.000,-90.00,180.00,-31.50,CLOSED,0
654989.339,0,0,0,1.000,1.000,1.000,-90.00,180.00,-31.50,CLOSED,0
654989.344,0,0,0,1.000,1.000,1.000,-90.00,180.00,-31.50,CLOSED,0
654989.348,0,0,0,1.000,1.000,1.000,-90.00,180.00,-31.50,CLOSED,0
654989.353,0,0,0,1.000,1.000,1.000,-90.00,180.00,-31.50,CLOSED,0
654989.356,0,0,0,1.000,1.000,1.000,-90.00,180.00,-31.50,CLOSED,0
654989.364,0,0,0,1.000,1.000,1.000,-90.00,180.00,-31.50,CLOSED,0
654989.370,0,0,0,1.000,1.000,1.000,-90.00,180.00,-31.50,CLOSED,0
654989.376,0,0,0,1.000,1.000,1.000,-90.00,180.00,-31.50,CLOSED,0
654989.382,0,0,0,1.000,1.000,1.000,-90.00,180.00,-31.50,CLOSED,0
654989.392,0,0,0,1.000,1.000,1.000,-90.00,180.00,-31.50,CLOSED,0
654989.408,0,0,0,1.000,1.000,1.000,-90.00,180.00,-31.50,CLOSED,0
654989.419,0,0,0,1.000,1.000,1.000,-90.00,180.00,-31.50,CLOSED,0
654989.429,0,0,0,1.000,1.000,1.000,-90.00,180.00,-31.50,CLOSED,0
654989.438,0,0,0,1.000,1.000,1.000,-90.00,180.00,-31.50,CLOSED,0
654989.447,0,0,0,1.000,1.000,1.000,-90.00,180.00,-31.50,CLOSED,0
654989.456,0,0,0,1.000,1.000,1.000,-90.00,180.00,-31.50,CLOSED,0
654989.466,0,0,0,1.000,1.000,1.000,-90.00,180.00,-31.50,CLOSED,0
654989.475,0,0,0,1.000,1.000,1.000,-90.00,180.00,-31.50,CLOSED,0
654989.486,0,0,0,1.000,1.000,1.000,-90.00,180.00,-31.50,CLOSED,0
654989.497,0,0,0,1.000,1.000,1.000,-90.00,180.00,-31.50,CLOSED,0
654989.503,0,0,0,1.000,1.000,1.000,-90.00,180.00,-31.50,CLOSED,0
654989.513,0,0,0,1.000,1.000,1.000,-90.00,180.00,-31.50,CLOSED,0
654989.521,0,0,0,1.000,1.000,1.000,-90.00,180.00,-31.50,CLOSED,0
654989.530,0,0,0,1.000,1.000,1.000,-90.00,180.00,-31.50,CLOSED,0
654989.539,0,0,0,1.000,1.000,1.000,-90.00,180.00,-31.50,CLOSED,0
654989.548,0,0,0,1.000,1.000,1.000,-90.00,180.00,-31.50,CLOSED,0
654989.556,0,0,0,1.000,1.000,1.000,-90.00,180.00,-31.50,CLOSED,0
654989.566,0,0,0,1.000,1.000,1.000,-90.00,180.00,-31.50,CLOSED,0
654989.573,0,0,0,1.000,1.000,1.000,-90.00,180.00,-31.50,CLOSED,0
654989.580,0,0,0,1.000,1.000,1.000,-90.00,180.00,-31.50,CLOSED,0
654989.584,0,0,0,1.000,1.000,1.000,-90.00,180.00,-31.50,CLOSED,0
654989.588,0,0,0,1.000,1.000,1.000,-90.00,180.00,-31.50,CLOSED,0
654989.594,0,0,0,1.000,1.000,1.000,-90.00,180.00,-31.50,CLOSED,0
654989.599,0,0,0,1.000,1.000,1.000,-90.00,180.00,-31.50,CLOSED,0
654989.606,0,0,0,1.000,1.000,1.000,-90.00,180.00,-31.50,CLOSED,0
654989.613,0,0,0,1.000,1.000,1.000,-90.00,180.00,-31.50,CLOSED,0
654989.619,0,0,0,1.000,1.000,1.000,-90.00,180.00,-31.50,CLOSED,0
654989.625,0,0,0,1.000,1.000,1.000,-90.00,180.00,-31.50,CLOSED,0
654989.632,0,0,0,1.000,1.000,1.000,-90.00,180.00,-31.50,CLOSED,0
654989.637,0,0,0,1.000,1.000,1.000,-90.00,180.00,-31.50,CLOSED,0
654989.643,0,0,0,1.000,1.000,1.000,-90.00,180.00,-31.50,CLOSED,0
654989.649,0,0,0,1.000,1.000,1.000,-90.00,180.00,-31.50,CLOSED,0
654989.654,0,0,0,1.000,1.000,1.000,-90.00,180.00,-31.50,CLOSED,0
654989.662,0,0,0,1.000,1.000,1.000,-90.00,180.00,-31.50,CLOSED,0
654989.667,0,0,0,1.000,1.000,1.000,-90.00,180.00,-31.50,CLOSED,0
654989.673,0,0,0,1.000,1.000,1.000,-90.00,180.00,-31.50,CLOSED,0
654989.678,0,0,0,1.000,1.000,1.000,-90.00,180.00,-31.50,CLOSED,0
654989.683,0,0,0,1.000,1.000,1.000,-90.00,180.00,-31.50,CLOSED,0
654989.687,0,0,0,1.000,1.000,1.000,-90.00,180.00,-31.50,CLOSED,0
654989.693,0,0,0,1.000,1.000,1.000,-90.00,180.00,-31.50,CLOSED,0
654989.699,0,0,0,1.000,1.000,1.000,-90.00,180.00,-31.50,CLOSED,0
654989.704,0,0,0,1.000,1.000,1.000,-90.00,180.00,-31.50,CLOSED,0
654989.708,0,0,0,1.000,1.000,1.000,-90.00,180.00,-31.50,CLOSED,0
654989.713,0,0,0,1.000,1.000,1.000,-90.00,180.00,-31.50,CLOSED,0
654989.719,0,0,0,1.000,1.000,1.000,-90.00,180.00,-31.50,CLOSED,0
654989.724,0,0,0,1.000,1.000,1.000,-90.00,180.00,-31.50,CLOSED,0
654989.731,0,0,0,1.000,1.000,1.000,-90.00,180.00,-31.50,CLOSED,0
654989.737,0,0,0,1.000,1.000,1.000,-90.00,180.00,-31.50,CLOSED,0
654989.742,0,0,0,1.000,1.000,1.000,-90.00,180.00,-31.50,CLOSED,0
654989.748,0,0,0,1.000,1.000,1.000,-90.00,180.00,-31.50,CLOSED,0
654989.754,0,0,0,1.000,1.000,1.000,-90.00,180.00,-31.50,CLOSED,0
654989.759,0,0,0,1.000,1.000,1.000,-90.00,180.00,-31.50,CLOSED,0
654989.764,0,0,0,1.000,1.000,1.000,-90.00,180.00,-31.50,CLOSED,0
654989.769,0,0,0,1.000,1.000,1.000,-90.00,180.00,-31.50,CLOSED,0
654989.773,0,0,0,1.000,1.000,1.000,-90.00,180.00,-31.50,CLOSED,0
654989.778,0,0,0,1.000,1.000,1.000,-90.00,180.00,-31.50,CLOSED,0
654989.782,0,0,0,0.999,1.000,1.000,-90.00,180.00,-31.50,CLOSED,0
654989.787,0,0,0,0.992,1.000,1.000,-90.00,180.00,-31.50,CLOSED,0
654989.791,0,0,0,0.991,1.000,1.000,-90.00,180.00,-31.50,CLOSED,0
654989.796,0,0,0,0.997,1.000,1.000,-90.00,180.00,-31.50,CLOSED,0
654989.803,0,0,0,0.992,1.000,1.000,-90.00,180.00,-31.50,CLOSED,0
654989.815,0,0,0,0.989,1.000,1.000,-90.00,180.00,-31.50,CLOSED,0
654989.825,0,0,0,0.995,1.000,1.000,-90.00,180.00,-31.50,CLOSED,0
654989.837,0,0,0,0.987,1.000,1.000,-90.00,180.00,-31.50,CLOSED,0
654989.845,0,0,0,0.986,1.000,1.000,-90.00,180.00,-31.50,CLOSED,0
654989.855,0,0,0,0.989,1.000,1.000,-90.00,180.00,-31.50,CLOSED,0
654989.862,0,0,0,0.998,0.999,1.000,-90.00,180.00,-31.50,CLOSED,0
654989.867,0,0,0,0.999,0.950,1.000,-90.00,180.00,-31.50,CLOSED,0
654989.872,0,0,0,0.999,0.765,1.000,-90.00,180.00,-31.50,CLOSED,0
654989.877,0,0,0,0.995,0.989,1.000,-90.00,180.00,-31.50,CLOSED,0
654989.881,0,0,0,0.985,0.999,1.000,-90.00,180.00,-31.50,CLOSED,0
654989.886,0,0,0,0.989,1.000,1.000,-90.00,180.00,-31.50,CLOSED,0
654989.890,0,0,0,0.994,1.000,1.000,-90.00,180.00,-31.50,CLOSED,0
654989.895,0,0,0,0.997,1.000,1.000,-90.00,180.00,-31.50,CLOSED,0
654989.900,0,0,0,0.999,1.000,1.000,-90.00,180.00,-31.50,CLOSED,0
654989.904,0,0,0,0.999,1.000,1.000,-90.00,180.00,-31.50,CLOSED,0
654989.909,0,1,0,0.996,1.000,1.000,-90.00,90.00,-31.50,CLOSED,1
654989.914,0,1,0,0.999,1.000,1.000,-90.00,90.00,-31.50,CLOSED,0
654989.918,0,1,0,1.000,1.000,1.000,-90.00,90.00,-31.50,CLOSED,0
654989.922,0,1,0,1.000,1.000,1.000,-90.00,90.00,-31.50,CLOSED,0
654989.927,0,1,0,1.000,1.000,0.999,-90.00,90.00,-31.50,CLOSED,0
654989.932,0,1,0,1.000,1.000,0.998,-90.00,90.00,-31.50,CLOSED,0
654989.936,0,1,0,1.000,1.000,0.996,-90.00,90.00,-31.50,CLOSED,0
654989.941,0,1,0,1.000,1.000,0.994,-90.00,90.00,-31.50,CLOSED,0
654989.946,0,1,0,1.000,1.000,0.993,-90.00,90.00,-31.50,CLOSED,0
654989.951,0,1,0,1.000,1.000,0.992,-90.00,90.00,-31.50,CLOSED,0
654989.955,0,1,0,1.000,1.000,0.990,-90.00,90.00,-31.50,CLOSED,0
654989.960,0,1,0,1.000,1.000,0.988,-90.00,90.00,-31.50,CLOSED,0
654989.966,0,1,0,1.000,1.000,0.987,-90.00,90.00,-31.50,CLOSED,0
654989.971,0,1,0,1.000,1.000,0.986,-90.00,90.00,-31.50,CLOSED,0
654989.975,0,1,0,1.000,1.000,0.986,-90.00,90.00,-31.50,CLOSED,0
654989.980,0,1,0,1.000,1.000,0.989,-90.00,90.00,-31.50,CLOSED,0
654989.986,0,1,0,1.000,1.000,0.991,-90.00,90.00,-31.50,CLOSED,0
654989.990,0,1,0,1.000,1.000,0.993,-90.00,90.00,-31.50,CLOSED,0
654989.996,0,1,0,1.000,0.999,0.994,-90.00,90.00,-31.50,CLOSED,0
654990.002,0,1,0,1.000,0.999,0.994,-90.00,90.00,-31.50,CLOSED,0
654990.007,0,1,0,1.000,0.999,0.994,-90.00,90.00,-31.50,CLOSED,0
654990.013,0,1,0,1.000,0.999,0.994,-90.00,90.00,-31.50,CLOSED,0
654990.019,0,1,0,1.000,0.999,0.993,-90.00,90.00,-31.50,CLOSED,0
654990.024,0,1,0,1.000,0.999,0.993,-90.00,90.00,-31.50,CLOSED,0
654990.030,0,1,0,1.000,0.999,0.991,-90.00,90.00,-31.50,CLOSED,0
654990.036,0,1,0,1.000,0.999,0.989,-90.00,90.00,-31.50,CLOSED,0
654990.041,0,1,0,1.000,1.000,0.989,-90.00,90.00,-31.50,CLOSED,0
654990.047,0,1,0,1.000,1.000,0.988,-90.00,90.00,-31.50,CLOSED,0
654990.052,0,1,0,1.000,1.000,0.991,-90.00,90.00,-31.50,CLOSED,0
654990.056,0,1,0,1.000,1.000,0.995,-90.00,90.00,-31.50,CLOSED,0
654990.061,0,1,0,1.000,1.000,0.997,-90.00,90.00,-31.50,CLOSED,0
654990.066,0,1,0,1.000,1.000,0.998,-90.00,90.00,-31.50,CLOSED,0
654990.070,0,1,0,1.000,1.000,0.999,-90.00,90.00,-31.50,CLOSED,0
654990.074,0,1,0,1.000,1.000,0.999,-90.00,90.00,-31.50,CLOSED,0
654990.080,0,1,0,1.000,1.000,0.999,-90.00,90.00,-31.50,CLOSED,0
654990.085,0,1,0,1.000,1.000,0.999,-90.00,90.00,-31.50,CLOSED,0
654990.089,0,1,0,1.000,1.000,0.999,-90.00,90.00,-31.50,CLOSED,0
654990.094,0,1,0,1.000,1.000,0.998,-90.00,90.00,-31.50,CLOSED,0
654990.099,0,1,0,1.000,1.000,0.997,-90.00,90.00,-31.50,CLOSED,0
654990.104,0,1,0,1.000,1.000,0.994,-90.00,90.00,-31.50,CLOSED,0
654990.108,0,1,0,1.000,0.999,0.988,-90.00,90.00,-31.50,CLOSED,0
654990.113,0,1,0,1.000,0.999,0.982,-90.00,90.00,-31.50,CLOSED,0
654990.118,0,1,0,1.000,0.998,0.985,-90.00,90.00,-31.50,CLOSED,0
654990.123,0,1,0,1.000,0.997,0.991,-90.00,90.00,-31.50,CLOSED,0
654990.128,0,1,0,1.000,0.997,0.995,-90.00,90.00,-31.50,CLOSED,0
654990.134,0,1,0,1.000,0.996,0.997,-90.00,90.00,-31.50,CLOSED,0
654990.140,0,1,0,1.000,0.995,0.998,-90.00,90.00,-31.50,CLOSED,0
654990.145,0,1,0,1.000,0.996,0.999,-90.00,90.00,-31.50,CLOSED,0
654990.150,0,1,0,1.000,0.997,0.998,-90.00,90.00,-31.50,CLOSED,0
654990.156,0,1,0,1.000,0.997,0.998,-90.00,90.00,-31.50,CLOSED,0
654990.161,0,1,0,1.000,0.998,0.997,-90.00,90.00,-31.50,CLOSED,0
654990.166,0,1,0,1.000,0.998,0.994,-90.00,90.00,-31.50,CLOSED,0
654990.171,0,1,0,1.000,0.999,0.988,-90.00,90.00,-31.50,CLOSED,0
654990.175,0,1,0,1.000,0.999,0.979,-90.00,90.00,-31.50,CLOSED,0
654990.179,0,1,0,1.000,0.999,0.976,-90.00,90.00,-31.50,CLOSED,0
654990.183,0,1,0,1.000,0.999,0.981,-90.00,90.00,-31.50,CLOSED,0
654990.188,0,1,0,1.000,0.999,0.984,-90.00,90.00,-31.50,CLOSED,0
654990.193,0,1,0,1.000,0.998,0.988,-90.00,90.00,-31.50,CLOSED,0
654990.197,0,1,0,1.000,0.998,0.993,-90.00,90.00,-31.50,CLOSED,0
654990.202,0,1,0,1.000,0.998,0.995,-90.00,90.00,-31.50,CLOSED,0
654990.206,0,1,0,1.000,0.998,0.997,-90.00,90.00,-31.50,CLOSED,0
654990.210,0,1,0,1.000,0.999,0.998,-90.00,90.00,-31.50,CLOSED,0
654990.214,0,1,0,1.000,0.999,0.998,-90.00,90.00,-31.50,CLOSED,0
654990.218,0,1,0,1.000,0.999,0.999,-90.00,90.00,-31.50,CLOSED,0
654990.222,0,1,0,1.000,0.999,0.999,-90.00,90.00,-31.50,CLOSED,0
654990.226,0,1,0,1.000,1.000,0.999,-90.00,90.00,-31.50,CLOSED,0
654990.230,0,1,0,1.000,1.000,0.998,-90.00,90.00,-31.50,CLOSED,0
654990.234,0,1,0,1.000,1.000,0.998,-90.00,90.00,-31.50,CLOSED,0
654990.238,0,1,0,1.000,1.000,0.998,-90.00,90.00,-31.50,CLOSED,0
654990.243,0,1,0,1.000,1.000,0.999,-90.00,90.00,-31.50,CLOSED,0
654990.246,0,1,0,1.000,1.000,0.999,-90.00,90.00,-31.50,CLOSED,0
654990.251,0,1,0,1.000,1.000,1.000,-90.00,90.00,-31.50,CLOSED,0
654990.254,0,1,0,1.000,1.000,1.000,-90.00,90.00,-31.50,CLOSED,0
654990.258,0,1,0,1.000,1.000,1.000,-90.00,90.00,-31.50,CLOSED,0
654990.264,0,1,0,1.000,1.000,1.000,-90.00,90.00,-31.50,CLOSED,0
654990.268,0,1,0,1.000,1.000,1.000,-90.00,90.00,-31.50,CLOSED,0
654990.272,0,1,0,1.000,1.000,1.000,-90.00,90.00,-31.50,CLOSED,0
654990.275,0,1,0,1.000,1.000,1.000,-90.00,90.00,-31.50,CLOSED,0
654990.279,0,1,0,1.000,1.000,1.000,-90.00,90.00,-31.50,CLOSED,0
654990.284,0,1,0,1.000,1.000,1.000,-90.00,90.00,-31.50,CLOSED,0
654990.289,0,1,0,1.000,1.000,1.000,-90.00,90.00,-31.50,CLOSED,0
654990.294,0,1,0,1.000,1.000,0.999,-90.00,90.00,-31.50,CLOSED,0
654990.299,0,1,0,1.000,1.000,0.999,-90.00,90.00,-31.50,CLOSED,0
654990.304,0,1,0,1.000,1.000,0.999,-90.00,90.00,-31.50,CLOSED,0
654990.308,0,1,0,1.000,1.000,0.999,-90.00,90.00,-31.50,CLOSED,0
654990.312,0,1,0,1.000,1.000,0.999,-90.00,90.00,-31.50,CLOSED,0
654990.317,0,1,0,1.000,1.000,0.999,-90.00,90.00,-31.50,CLOSED,0
654990.321,0,1,0,1.000,1.000,0.999,-90.00,90.00,-31.50,CLOSED,0
654990.325,0,1,0,1.000,1.000,0.999,-90.00,90.00,-31.50,CLOSED,0
654990.329,0,1,0,1.000,1.000,0.999,-90.00,90.00,-31.50,CLOSED,0
654990.333,0,1,0,1.000,1.000,0.999,-90.00,90.00,-31.50,CLOSED,0
654990.337,0,1,0,1.000,1.000,0.998,-90.00,90.00,-31.50,CLOSED,0
654990.341,0,1,0,1.000,1.000,0.996,-90.00,90.00,-31.50,CLOSED,0
654990.345,0,1,0,1.000,0.999,0.992,-90.00,90.00,-31.50,CLOSED,0
654990.350,0,1,0,1.000,0.998,0.985,-90.00,90.00,-31.50,CLOSED,0
654990.354,0,1,0,1.000,0.988,0.978,-90.00,90.00,-31.50,CLOSED,0
654990.358,0,1,0,1.000,0.924,0.974,-90.00,90.00,-31.50,CLOSED,0
654990.363,0,1,0,1.000,0.623,0.976,-90.00,90.00,-31.50,CLOSED,0
654990.367,0,1,0,1.000,0.959,0.989,-90.00,90.00,-31.50,CLOSED,0
654990.371,0,1,0,1.000,0.995,0.995,-90.00,90.00,-31.50,CLOSED,0
654990.376,0,1,0,1.000,0.999,0.996,-90.00,90.00,-31.50,CLOSED,0
654990.380,0,1,0,1.000,1.000,0.998,-90.00,90.00,-31.50,CLOSED,0
654990.384,0,1,0,1.000,1.000,0.998,-90.00,90.00,-31.50,CLOSED,0
654990.388,0,1,0,1.000,1.000,0.999,-90.00,90.00,-31.50,CLOSED,0
654990.393,0,1,0,1.000,1.000,0.999,-90.00,90.00,-31.50,CLOSED,0
654990.397,0,0,0,1.000,1.000,0.999,-90.00,180.00,-31.50,CLOSED,1
654990.401,0,0,0,1.000,0.999,1.000,-90.00,180.00,-31.50,CLOSED,0
654990.406,0,0,0,1.000,0.999,1.000,-90.00,180.00,-31.50,CLOSED,0
654990.411,0,0,0,1.000,0.998,1.000,-90.00,180.00,-31.50,CLOSED,0
654990.415,0,0,0,1.000,0.996,1.000,-90.00,180.00,-31.50,CLOSED,0
654990.419,0,0,0,0.999,0.994,1.000,-90.00,180.00,-31.50,CLOSED,0
654990.423,0,0,0,0.999,0.986,1.000,-90.00,180.00,-31.50,CLOSED,0
654990.428,0,0,0,0.999,0.981,1.000,-90.00,180.00,-31.50,CLOSED,0
654990.433,0,0,0,0.999,0.985,1.000,-90.00,180.00,-31.50,CLOSED,0
654990.438,0,0,0,0.999,0.996,1.000,-90.00,180.00,-31.50,CLOSED,0
654990.442,0,0,0,0.997,0.996,1.000,-90.00,180.00,-31.50,CLOSED,0
654990.447,0,0,0,0.997,1.000,1.000,-90.00,180.00,-31.50,CLOSED,0
654990.450,0,0,0,0.994,1.000,1.000,-90.00,180.00,-31.50,CLOSED,0
654990.454,0,0,0,0.998,1.000,1.000,-90.00,180.00,-31.50,CLOSED,0
654990.458,0,0,0,0.999,1.000,1.000,-90.00,180.00,-31.50,CLOSED,0
654990.462,0,0,0,1.000,1.000,1.000,-90.00,180.00,-31.50,CLOSED,0
654990.466,0,0,0,1.000,1.000,1.000,-90.00,180.00,-31.50,CLOSED,0
654990.471,0,0,0,1.000,1.000,1.000,-90.00,180.00,-31.50,CLOSED,0
654990.474,0,0,0,1.000,1.000,1.000,-90.00,180.00,-31.50,CLOSED,0
654990.479,0,0,0,0.999,1.000,1.000,-90.00,180.00,-31.50,CLOSED,0
654990.483,0,0,0,1.000,1.000,1.000,-90.00,180.00,-31.50,CLOSED,0
654990.487,0,0,0,1.000,1.000,1.000,-90.00,180.00,-31.50,CLOSED,0
654990.491,0,0,0,1.000,1.000,1.000,-90.00,180.00,-31.50,CLOSED,0
654990.495,0,0,0,1.000,1.000,1.000,-90.00,180.00,-31.50,CLOSED,0
654990.499,0,0,0,1.000,1.000,1.000,-90.00,180.00,-31.50,CLOSED,0
654990.503,0,0,0,1.000,1.000,1.000,-90.00,180.00,-31.50,CLOSED,0
654990.506,0,0,0,1.000,1.000,1.000,-90.00,180.00,-31.50,CLOSED,0
654990.510,0,0,0,1.000,1.000,1.000,-90.00,180.00,-31.50,CLOSED,0
654990.514,0,0,0,1.000,1.000,1.000,-90.00,180.00,-31.50,CLOSED,0
654990.518,0,0,0,1.000,1.000,1.000,-90.00,180.00,-31.50,CLOSED,0
654990.522,0,0,0,1.000,1.000,1.000,-90.00,180.00,-31.50,CLOSED,0
654990.526,0,0,0,1.000,1.000,1.000,-90.00,180.00,-31.50,CLOSED,0
654990.531,0,0,0,1.000,1.000,1.000,-90.00,180.00,-31.50,CLOSED,0
654990.535,0,0,0,1.000,1.000,1.000,-90.00,180.00,-31.50,CLOSED,0
654990.539,0,0,0,1.000,1.000,1.000,-90.00,180.00,-31.50,CLOSED,0
654990.544,0,0,0,1.000,1.000,1.000,-90.00,180.00,-31.50,CLOSED,0
654990.549,0,0,0,1.000,1.000,1.000,-90.00,180.00,-31.50,CLOSED,0
654990.554,0,0,0,1.000,1.000,1.000,-90.00,180.00,-31.50,CLOSED,0
654990.558,0,0,0,1.000,1.000,1.000,-90.00,180.00,-31.50,CLOSED,0
654990.563,0,0,0,1.000,1.000,1.000,-90.00,180.00,-31.50,CLOSED,0
654990.569,0,0,0,1.000,1.000,1.000,-90.00,180.00,-31.50,CLOSED,0
654990.574,0,0,0,1.000,1.000,1.000,-90.00,180.00,-31.50,CLOSED,0
654990.579,0,0,0,1.000,1.000,1.000,-90.00,180.00,-31.50,CLOSED,0
654990.583,0,0,0,1.000,1.000,1.000,-90.00,180.00,-31.50,CLOSED,0
654990.587,0,0,0,1.000,1.000,1.000,-90.00,180.00,-31.50,CLOSED,0
654990.591,0,0,0,1.000,1.000,1.000,-90.00,180.00,-31.50,CLOSED,0
654990.596,0,0,0,1.000,1.000,1.000,-90.00,180.00,-31.50,CLOSED,0
654990.601,0,0,0,1.000,1.000,1.000,-90.00,180.00,-31.50,CLOSED,0
654990.606,0,0,0,1.000,1.000,1.000,-90.00,180.00,-31.50,CLOSED,0
654990.611,0,0,0,1.000,1.000,1.000,-90.00,180.00,-31.50,CLOSED,0
654990.615,0,0,0,1.000,1.000,1.000,-90.00,180.00,-31.50,CLOSED,0
654990.620,0,0,0,1.000,1.000,1.000,-90.00,180.00,-31.50,CLOSED,0
654990.624,0,0,0,1.000,1.000,1.000,-90.00,180.00,-31.50,CLOSED,0
654990.628,0,0,0,1.000,1.000,1.000,-90.00,180.00,-31.50,CLOSED,0
654990.632,0,0,0,1.000,1.000,1.000,-90.00,180.00,-31.50,CLOSED,0
654990.636,0,0,0,1.000,1.000,1.000,-90.00,180.00,-31.50,CLOSED,0
654990.640,0,0,0,1.000,1.000,1.000,-90.00,180.00,-31.50,CLOSED,0
654990.644,0,0,0,1.000,1.000,1.000,-90.00,180.00,-31.50,CLOSED,0
654990.648,0,0,0,1.000,1.000,1.000,-90.00,180.00,-31.50,CLOSED,0
654990.653,0,0,0,1.000,1.000,1.000,-90.00,180.00,-31.50,CLOSED,0
654990.659,0,0,0,1.000,1.000,1.000,-90.00,180.00,-31.50,CLOSED,0
654990.664,0,0,0,1.000,1.000,1.000,-90.00,180.00,-31.50,CLOSED,0
654990.670,0,0,0,1.000,1.000,1.000,-90.00,180.00,-31.50,CLOSED,0
654990.677,0,0,0,1.000,1.000,1.000,-90.00,180.00,-31.50,CLOSED,0
654990.683,0,0,0,1.000,1.000,1.000,-90.00,180.00,-31.50,CLOSED,0
654990.688,0,0,0,1.000,1.000,1.000,-90.00,180.00,-31.50,CLOSED,0
654990.693,0,0,0,1.000,1.000,1.000,-90.00,180.00,-31.50,CLOSED,0
654990.697,0,0,0,1.000,1.000,1.000,-90.00,180.00,-31.50,CLOSED,0
654990.702,0,0,0,1.000,1.000,1.000,-90.00,180.00,-31.50,CLOSED,0
654990.706,0,0,0,1.000,1.000,1.000,-90.00,180.00,-31.50,CLOSED,0
654990.710,0,0,0,1.000,1.000,1.000,-90.00,180.00,-31.50,CLOSED,0
654990.714,0,0,0,1.000,1.000,1.000,-90.00,180.00,-31.50,CLOSED,0
654990.718,0,0,0,1.000,1.000,1.000,-90.00,180.00,-31.50,CLOSED,0
654990.722,0,0,0,1.000,1.000,1.000,-90.00,180.00,-31.50,CLOSED,0
654990.727,0,0,0,1.000,1.000,1.000,-90.00,180.00,-31.50,CLOSED,0
654990.731,0,0,0,1.000,1.000,1.000,-90.00,180.00,-31.50,CLOSED,0
654990.735,0,0,0,1.000,1.000,1.000,-90.00,180.00,-31.50,CLOSED,0
654990.739,0,0,0,1.000,1.000,1.000,-90.00,180.00,-31.50,CLOSED,0
654990.743,0,0,0,1.000,1.000,1.000,-90.00,180.00,-31.50,CLOSED,0
654990.747,0,0,0,1.000,1.000,1.000,-90.00,180.00,-31.50,CLOSED,0
654990.751,0,0,0,1.000,1.000,1.000,-90.00,180.00,-31.50,CLOSED,0
654990.756,0,0,0,1.000,1.000,1.000,-90.00,180.00,-31.50,CLOSED,0
654990.762,0,0,0,1.000,1.000,1.000,-90.00,180.00,-31.50,CLOSED,0
654990.768,0,0,0,1.000,1.000,1.000,-90.00,180.00,-31.50,CLOSED,0
654990.774,0,0,0,1.000,1.000,1.000,-90.00,180.00,-31.50,CLOSED,0
654990.779,0,0,0,1.000,1.000,1.000,-90.00,180.00,-31.50,CLOSED,0
654990.785,0,0,0,1.000,1.000,1.000,-90.00,180.00,-31.50,CLOSED,0
654990.790,0,0,0,1.000,1.000,1.000,-90.00,180.00,-31.50,CLOSED,0
654990.795,0,0,0,1.000,1.000,1.000,-90.00,180.00,-31.50,CLOSED,0
654990.800,0,0,0,1.000,1.000,1.000,-90.00,180.00,-31.50,CLOSED,0
654990.805,0,0,0,1.000,1.000,1.000,-90.00,180.00,-31.50,CLOSED,0
654990.809,0,0,0,1.000,1.000,1.000,-90.00,180.00,-31.50,CLOSED,0
654990.814,0,0,0,1.000,1.000,1.000,-90.00,180.00,-31.50,CLOSED,0
654990.818,0,0,0,1.000,1.000,1.000,-90.00,180.00,-31.50,CLOSED,0
654990.823,0,0,0,1.000,1.000,1.000,-90.00,180.00,-31.50,CLOSED,0
654990.827,0,0,0,1.000,1.000,1.000,-90.00,180.00,-31.50,CLOSED,0
654990.831,0,0,0,1.000,1.000,1.000,-90.00,180.00,-31.50,CLOSED,0
654990.835,0,0,0,1.000,1.000,1.000,-90.00,180.00,-31.50,CLOSED,0
654990.839,0,0,0,1.000,1.000,1.000,-90.00,180.00,-31.50,CLOSED,0
654990.843,0,0,0,1.000,1.000,1.000,-90.00,180.00,-31.50,CLOSED,0
654990.848,0,0,0,1.000,1.000,1.000,-90.00,180.00,-31.50,CLOSED,0
654990.852,0,0,0,1.000,1.000,1.000,-90.00,180.00,-31.50,CLOSED,0
654990.855,0,0,0,1.000,1.000,1.000,-90.00,180.00,-31.50,CLOSED,0
654990.859,0,0,0,1.000,1.000,1.000,-90.00,180.00,-31.50,CLOSED,0
654990.863,0,0,0,1.000,1.000,1.000,-90.00,180.00,-31.50,CLOSED,0
654990.867,0,0,0,1.000,1.000,1.000,-90.00,180.00,-31.50,CLOSED,0
654990.872,0,0,0,1.000,1.000,1.000,-90.00,180.00,-31.50,CLOSED,0
654990.878,0,0,0,1.000,1.000,1.000,-90.00,180.00,-31.50,CLOSED,0
654990.883,0,0,0,1.000,1.000,1.000,-90.00,180.00,-31.50,CLOSED,0
654990.887,0,0,0,1.000,1.000,1.000,-90.00,180.00,-31.50,CLOSED,0
654990.893,0,0,0,1.000,1.000,1.000,-90.00,180.00,-31.50,CLOSED,0
654990.898,0,0,0,1.000,1.000,1.000,-90.00,180.00,-31.50,CLOSED,0
654990.902,0,0,0,1.000,1.000,1.000,-90.00,180.00,-31.50,CLOSED,0
654990.907,0,0,0,1.000,1.000,1.000,-90.00,180.00,-31.50,CLOSED,0
654990.911,0,0,0,1.000,1.000,1.000,-90.00,180.00,-31.50,CLOSED,0
654990.915,0,0,0,1.000,1.000,1.000,-90.00,180.00,-31.50,CLOSED,0
654990.919,0,0,0,1.000,1.000,1.000,-90.00,180.00,-31.50,CLOSED,0
654990.923,0,0,0,1.000,1.000,1.000,-90.00,180.00,-31.50,CLOSED,0
654990.928,0,0,0,1.000,1.000,1.000,-90.00,180.00,-31.50,CLOSED,0
654990.932,0,0,0,1.000,1.000,1.000,-90.00,180.00,-31.50,CLOSED,0
654990.935,0,0,0,1.000,1.000,1.000,-90.00,180.00,-31.50,CLOSED,0
654990.939,0,0,0,1.000,1.000,1.000,-90.00,180.00,-31.50,CLOSED,0
654990.944,0,0,0,1.000,1.000,1.000,-90.00,180.00,-31.50,CLOSED,0
654990.948,0,0,0,1.000,1.000,1.000,-90.00,180.00,-31.50,CLOSED,0
654990.952,0,0,0,1.000,1.000,1.000,-90.00,180.00,-31.50,CLOSED,0
654990.956,0,0,0,1.000,1.000,1.000,-90.00,180.00,-31.50,CLOSED,0
654990.960,0,0,0,1.000,1.000,1.000,-90.00,180.00,-31.50,CLOSED,0
654990.964,0,0,0,1.000,1.000,1.000,-90.00,180.00,-31.50,CLOSED,0
654990.968,0,0,0,1.000,1.000,1.000,-90.00,180.00,-31.50,CLOSED,0
654990.972,0,0,0,1.000,1.000,1.000,-90.00,180.00,-31.50,CLOSED,0
654990.976,0,0,0,1.000,1.000,1.000,-90.00,180.00,-31.50,CLOSED,0
654990.979,0,0,0,1.000,1.000,1.000,-90.00,180.00,-31.50,CLOSED,0
654990.983,0,0,0,1.000,1.000,1.000,-90.00,180.00,-31.50,CLOSED,0
654990.987,0,0,0,1.000,1.000,1.000,-90.00,180.00,-31.50,CLOSED,0
654990.992,0,0,0,1.000,1.000,1.000,-90.00,180.00,-31.50,CLOSED,0
654990.996,0,0,0,1.000,1.000,1.000,-90.00,180.00,-31.50,CLOSED,0
654991.000,0,0,0,1.000,1.000,1.000,-90.00,180.00,-31.50,CLOSED,0
654991.003,0,0,0,1.000,1.000,1.000,-90.00,180.00,-31.50,CLOSED,0
654991.007,0,0,0,1.000,1.000,1.000,-90.00,180.00,-31.50,CLOSED,0
654991.012,0,0,0,0.999,1.000,1.000,-90.00,180.00,-31.50,CLOSED,0
654991.017,0,0,0,0.858,1.000,1.000,-90.00,180.00,-31.50,CLOSED,0
654991.022,0,0,0,0.484,1.000,1.000,-90.00,180.00,-31.50,CLOSED,0
654991.026,0,0,0,0.481,1.000,1.000,-90.00,180.00,-31.50,CLOSED,0
654991.031,0,0,0,0.604,1.000,1.000,-90.00,180.00,-31.50,CLOSED,0
654991.036,0,0,0,0.670,1.000,1.000,-90.00,180.00,-31.50,CLOSED,0
654991.041,0,0,0,0.776,1.000,1.000,-90.00,180.00,-31.50,CLOSED,0
654991.046,0,0,0,0.937,1.000,1.000,-90.00,180.00,-31.50,CLOSED,0
654991.050,0,0,0,0.997,1.000,1.000,-90.00,180.00,-31.50,CLOSED,0
654991.054,0,0,0,1.000,1.000,1.000,-90.00,180.00,-31.50,CLOSED,0
654991.058,0,0,0,1.000,1.000,1.000,-90.00,180.00,-31.50,CLOSED,0
654991.063,0,0,0,1.000,1.000,1.000,-90.00,180.00,-31.50,CLOSED,0
654991.067,3,0,0,1.000,1.000,1.000,-90.00,180.00,-31.50,OPEN,0
654991.070,3,0,0,1.000,1.000,1.000,-90.00,180.00,-31.50,OPEN,0
654991.074,3,0,0,1.000,1.000,1.000,-90.00,180.00,-31.50,OPEN,0
654991.079,3,0,0,1.000,1.000,1.000,-90.00,180.00,-31.50,OPEN,0
654991.083,3,0,0,1.000,1.000,1.000,-90.00,180.00,-31.50,OPEN,0
654991.087,3,0,0,1.000,1.000,1.000,-90.00,180.00,-31.50,OPEN,0
654991.090,3,0,0,1.000,1.000,1.000,-90.00,180.00,-31.50,OPEN,0
654991.095,3,0,0,1.000,1.000,1.000,-90.00,180.00,-31.50,OPEN,0
654991.099,3,0,0,1.000,1.000,1.000,-90.00,180.00,-31.50,OPEN,0
654991.103,3,0,0,1.000,1.000,1.000,-90.00,180.00,-31.50,OPEN,0
654991.107,3,0,0,1.000,1.000,1.000,-90.00,180.00,-31.50,OPEN,0
654991.111,3,0,0,1.000,1.000,1.000,-90.00,180.00,-31.50,OPEN,0
654991.116,3,0,0,1.000,1.000,1.000,-90.00,180.00,-31.50,OPEN,0
654991.120,3,0,0,1.000,1.000,1.000,-90.00,180.00,-31.50,OPEN,0
654991.124,3,0,0,1.000,1.000,1.000,-90.00,180.00,-31.50,OPEN,0
654991.129,3,0,0,1.000,1.000,1.000,-90.00,180.00,-31.50,OPEN,0
654991.134,3,0,0,1.000,1.000,1.000,-90.00,180.00,-31.50,OPEN,0
654991.138,3,0,0,1.000,1.000,1.000,-90.00,180.00,-31.50,OPEN,0
654991.142,3,0,0,1.000,1.000,1.000,-90.00,180.00,-31.50,OPEN,0
654991.147,3,0,0,1.000,1.000,1.000,-90.00,180.00,-31.50,OPEN,0
654991.151,3,0,0,1.000,1.000,1.000,-90.00,180.00,-31.50,OPEN,0
654991.155,3,0,0,1.000,1.000,1.000,-90.00,180.00,-31.50,OPEN,0
654991.159,3,0,0,1.000,1.000,1.000,-90.00,180.00,-31.50,OPEN,0
654991.164,3,0,0,1.000,1.000,1.000,-90.00,180.00,-31.50,OPEN,0
654991.168,3,0,0,1.000,1.000,1.000,-90.00,180.00,-31.50,OPEN,0
654991.172,3,0,0,1.000,1.000,1.000,-90.00,180.00,-31.50,OPEN,0
654991.177,3,0,0,1.000,1.000,1.000,-90.00,180.00,-31.50,OPEN,0
654991.181,3,0,0,1.000,1.000,1.000,-90.00,180.00,-31.50,OPEN,0
654991.185,3,0,0,1.000,1.000,1.000,-90.00,180.00,-31.50,OPEN,0
654991.189,3,0,0,1.000,1.000,1.000,-90.00,180.00,-31.50,OPEN,0
654991.194,3,0,0,1.000,1.000,1.000,-90.00,180.00,-31.50,OPEN,0
654991.199,3,0,0,1.000,1.000,1.000,-90.00,180.00,-31.50,OPEN,0
654991.203,3,0,0,1.000,1.000,1.000,-90.00,180.00,-31.50,OPEN,0
654991.208,3,0,0,1.000,1.000,1.000,-90.00,180.00,-31.50,OPEN,0
654991.213,3,0,0,1.000,1.000,1.000,-90.00,180.00,-31.50,OPEN,0
654991.218,3,0,0,1.000,1.000,1.000,-90.00,180.00,-31.50,OPEN,0
654991.224,3,0,0,1.000,1.000,1.000,-90.00,180.00,-31.50,OPEN,0
654991.231,3,0,0,1.000,1.000,1.000,-90.00,180.00,-31.50,OPEN,0
654991.238,3,0,0,1.000,1.000,1.000,-90.00,180.00,-31.50,OPEN,0
654991.244,3,0,0,1.000,1.000,1.000,-90.00,180.00,-31.50,OPEN,0
654991.250,3,0,0,1.000,1.000,1.000,-90.00,180.00,-31.50,OPEN,0
654991.255,3,0,0,1.000,1.000,1.000,-90.00,180.00,-31.50,OPEN,0
654991.260,3,0,0,1.000,1.000,1.000,-90.00,180.00,-31.50,OPEN,0
654991.266,3,0,0,1.000,1.000,1.000,-90.00,180.00,-31.50,OPEN,0
654991.272,3,0,0,1.000,1.000,1.000,-90.00,180.00,-31.50,OPEN,0
654991.277,3,0,0,1.000,1.000,1.000,-90.00,180.00,-31.50,OPEN,0
654991.282,3,0,0,1.000,1.000,1.000,-90.00,180.00,-31.50,OPEN,0
654991.287,3,0,0,1.000,1.000,1.000,-90.00,180.00,-31.50,OPEN,0
654991.292,3,0,0,1.000,1.000,1.000,-90.00,180.00,-31.50,OPEN,0
654991.298,3,0,0,1.000,1.000,1.000,-90.00,180.00,-31.50,OPEN,0
654991.303,3,0,0,1.000,1.000,1.000,-90.00,180.00,-31.50,OPEN,0
654991.307,3,0,0,1.000,1.000,1.000,-90.00,180.00,-31.50,OPEN,0
654991.313,3,0,0,1.000,1.000,1.000,-90.00,180.00,-31.50,OPEN,0
654991.318,3,0,0,1.000,1.000,1.000,-90.00,180.00,-31.50,OPEN,0
654991.323,3,0,0,1.000,1.000,1.000,-90.00,180.00,-31.50,OPEN,0
654991.328,3,0,0,1.000,1.000,1.000,-90.00,180.00,-31.50,OPEN,0
654991.333,3,0,0,1.000,1.000,1.000,-90.00,180.00,-31.50,OPEN,0
654991.338,3,0,0,1.000,1.000,1.000,-90.00,180.00,-31.50,OPEN,0
654991.343,3,0,0,1.000,1.000,1.000,-90.00,180.00,-31.50,OPEN,0
654991.348,3,0,0,1.000,1.000,1.000,-90.00,180.00,-31.50,OPEN,0
654991.357,3,0,0,1.000,1.000,1.000,-90.00,180.00,-31.50,OPEN,0
654991.366,3,0,0,1.000,1.000,1.000,-90.00,180.00,-31.50,OPEN,0
654991.379,3,0,0,1.000,1.000,1.000,-90.00,180.00,-31.50,OPEN,0
655160.117,3,0,0,1.000,1.000,1.000,-90.00,180.00,-31.50,OPEN,0
655160.121,3,0,0,1.000,1.000,1.000,-90.00,180.00,-31.50,OPEN,0
655160.128,3,0,0,1.000,1.000,1.000,-90.00,180.00,-31.50,OPEN,0
655160.134,3,0,0,1.000,1.000,1.000,-90.00,180.00,-31.50,OPEN,0
655160.139,3,0,0,1.000,1.000,1.000,-90.00,180.00,-31.50,OPEN,0
655160.148,3,0,0,1.000,1.000,1.000,-90.00,180.00,-31.50,OPEN,0
655160.155,3,0,0,1.000,1.000,1.000,-90.00,180.00,-31.50,OPEN,0
655160.162,3,0,0,1.000,1.000,1.000,-90.00,180.00,-31.50,OPEN,0
655160.167,3,0,0,1.000,1.000,1.000,-90.00,180.00,-31.50,OPEN,0
655160.172,3,0,0,1.000,1.000,1.000,-90.00,180.00,-31.50,OPEN,0
655160.177,3,0,0,1.000,1.000,1.000,-90.00,180.00,-31.50,OPEN,0
655160.181,3,0,0,1.000,1.000,1.000,-90.00,180.00,-31.50,OPEN,0
655160.186,3,0,0,1.000,1.000,1.000,-90.00,180.00,-31.50,OPEN,0
655160.193,3,0,0,1.000,1.000,1.000,-90.00,180.00,-31.50,OPEN,0
655160.199,3,0,0,1.000,1.000,1.000,-90.00,180.00,-31.50,OPEN,0
655160.205,3,0,0,1.000,1.000,1.000,-90.00,180.00,-31.50,OPEN,0
655160.214,3,0,0,1.000,1.000,1.000,-90.00,180.00,-31.50,OPEN,0
655160.220,3,0,0,1.000,1.000,1.000,-90.00,180.00,-31.50,OPEN,0
655160.230,3,0,0,1.000,1.000,1.000,-90.00,180.00,-31.50,OPEN,0
655160.236,3,0,0,1.000,1.000,1.000,-90.00,180.00,-31.50,OPEN,0
655160.243,3,0,0,1.000,1.000,1.000,-90.00,180.00,-31.50,OPEN,0
655160.248,3,0,0,1.000,1.000,1.000,-90.00,180.00,-31.50,OPEN,0
655160.253,3,0,0,1.000,1.000,1.000,-90.00,180.00,-31.50,OPEN,0
655160.260,3,0,0,1.000,1.000,1.000,-90.00,180.00,-31.50,OPEN,0
655160.265,3,0,0,1.000,1.000,1.000,-90.00,180.00,-31.50,OPEN,0
655160.269,3,0,0,1.000,1.000,1.000,-90.00,180.00,-31.50,OPEN,0
655160.274,3,0,0,1.000,1.000,1.000,-90.00,180.00,-31.50,OPEN,0
655160.281,3,0,0,1.000,1.000,1.000,-90.00,180.00,-31.50,OPEN,0
655160.286,3,0,0,1.000,1.000,1.000,-90.00,180.00,-31.50,OPEN,0
655160.291,3,0,0,1.000,1.000,1.000,-90.00,180.00,-31.50,OPEN,0
655160.297,3,0,0,1.000,1.000,1.000,-90.00,180.00,-31.50,OPEN,0
655160.302,3,0,0,1.000,1.000,1.000,-90.00,180.00,-31.50,OPEN,0
655160.306,3,0,0,1.000,1.000,1.000,-90.00,180.00,-31.50,OPEN,0
655160.312,3,0,0,1.000,1.000,1.000,-90.00,180.00,-31.50,OPEN,0
655160.317,3,0,0,1.000,1.000,1.000,-90.00,180.00,-31.50,OPEN,0
655160.321,3,0,0,1.000,1.000,1.000,-90.00,180.00,-31.50,OPEN,0
655160.326,3,0,0,1.000,1.000,1.000,-90.00,180.00,-31.50,OPEN,0
655160.332,3,0,0,1.000,1.000,1.000,-90.00,180.00,-31.50,OPEN,0
655160.336,3,0,0,1.000,1.000,1.000,-90.00,180.00,-31.50,OPEN,0
655160.341,3,0,0,1.000,1.000,1.000,-90.00,180.00,-31.50,OPEN,0
655160.347,3,0,0,1.000,1.000,1.000,-90.00,180.00,-31.50,OPEN,0
655160.351,3,0,0,1.000,1.000,1.000,-90.00,180.00,-31.50,OPEN,0
655160.355,3,0,0,1.000,1.000,1.000,-90.00,180.00,-31.50,OPEN,0
655160.361,3,0,0,1.000,1.000,1.000,-90.00,180.00,-31.50,OPEN,0
655160.367,3,0,0,0.999,1.000,1.000,-90.00,180.00,-31.50,OPEN,0
655160.371,3,0,0,0.975,1.000,1.000,-90.00,180.00,-31.50,OPEN,0
655160.376,3,0,0,0.869,1.000,1.000,-90.00,180.00,-31.50,OPEN,0
655160.381,3,0,0,0.666,1.000,1.000,-90.00,180.00,-31.50,OPEN,0
655160.386,3,0,0,0.511,1.000,1.000,-90.00,180.00,-31.50,OPEN,0
655160.390,3,0,0,0.589,1.000,1.000,-90.00,180.00,-31.50,OPEN,0
655160.394,3,0,0,0.639,1.000,1.000,-90.00,180.00,-31.50,OPEN,0
655160.399,3,0,0,0.562,1.000,1.000,-90.00,180.00,-31.50,OPEN,0
655160.403,3,0,0,0.920,1.000,1.000,-90.00,180.00,-31.50,OPEN,0
655160.407,3,0,0,1.000,1.000,1.000,-90.00,180.00,-31.50,OPEN,0
655160.412,3,0,0,1.000,1.000,1.000,-90.00,180.00,-31.50,OPEN,0
655160.416,3,0,0,1.000,1.000,1.000,-90.00,180.00,-31.50,OPEN,0
655160.420,3,0,0,1.000,1.000,1.000,-90.00,180.00,-31.50,OPEN,0
655160.424,3,0,0,1.000,1.000,1.000,-90.00,180.00,-31.50,OPEN,0
655160.429,3,0,0,1.000,1.000,1.000,-90.00,180.00,-31.50,OPEN,0
655160.432,0,0,0,1.000,1.000,1.000,-90.00,180.00,-31.50,OPEN,0
655160.436,0,0,0,1.000,1.000,1.000,-90.00,180.00,-31.50,OPEN,0
655160.440,0,0,0,1.000,1.000,1.000,-90.00,180.00,-31.50,OPEN,0
655160.444,0,0,0,1.000,1.000,1.000,-90.00,180.00,-31.50,OPEN,0
655160.448,0,0,0,1.000,1.000,1.000,-90.00,180.00,-31.50,OPEN,0
655160.452,0,0,0,1.000,1.000,1.000,-90.00,180.00,-31.50,OPEN,0
655160.456,0,0,0,1.000,1.000,1.000,-90.00,180.00,-31.50,OPEN,0
655160.460,0,0,0,1.000,1.000,1.000,-90.00,180.00,-31.50,OPEN,0
655160.464,0,0,0,1.000,1.000,1.000,-90.00,180.00,-31.50,OPEN,0
655160.468,0,0,0,1.000,1.000,1.000,-90.00,180.00,-31.50,OPEN,0
655160.473,0,0,0,1.000,1.000,1.000,-90.00,180.00,-31.50,OPEN,0
655160.478,0,0,0,1.000,1.000,1.000,-90.00,180.00,-31.50,OPEN,0
655160.483,0,0,0,1.000,1.000,1.000,-90.00,180.00,-31.50,OPEN,0
655160.487,0,0,0,1.000,1.000,1.000,-90.00,180.00,-31.50,OPEN,0
655160.491,0,0,0,1.000,1.000,1.000,-90.00,180.00,-31.50,OPEN,0
655160.495,0,0,0,1.000,1.000,1.000,-90.00,180.00,-31.50,OPEN,0
655160.499,0,0,0,1.000,1.000,1.000,-90.00,180.00,-31.50,OPEN,0
655160.503,0,0,0,1.000,1.000,1.000,-90.00,180.00,-31.50,OPEN,0
655160.507,0,0,0,1.000,1.000,1.000,-90.00,180.00,-31.50,OPEN,0
655160.511,0,0,0,1.000,1.000,1.000,-90.00,180.00,-31.50,OPEN,0
655160.515,0,0,0,0.999,1.000,1.000,-90.00,180.00,-31.50,OPEN,0
655160.520,0,0,0,1.000,1.000,1.000,-90.00,180.00,-31.50,OPEN,0
655160.524,0,0,0,1.000,1.000,1.000,-90.00,180.00,-31.50,OPEN,0
655160.529,0,0,0,1.000,1.000,1.000,-90.00,180.00,-31.50,OPEN,0
655160.534,0,0,0,1.000,1.000,1.000,-90.00,180.00,-31.50,OPEN,0
655160.538,0,0,0,1.000,1.000,1.000,-90.00,180.00,-31.50,OPEN,0
655160.542,0,0,0,1.000,1.000,1.000,-90.00,180.00,-31.50,OPEN,0
655160.546,0,0,0,1.000,1.000,1.000,-90.00,180.00,-31.50,OPEN,0
655160.550,0,0,0,1.000,1.000,1.000,-90.00,180.00,-31.50,OPEN,0
655160.554,0,0,0,1.000,1.000,1.000,-90.00,180.00,-31.50,OPEN,0
655160.558,0,0,0,1.000,1.000,1.000,-90.00,180.00,-31.50,OPEN,0
655160.563,0,0,0,1.000,1.000,1.000,-90.00,180.00,-31.50,OPEN,0
655160.567,0,0,0,1.000,1.000,1.000,-90.00,180.00,-31.50,OPEN,0
655160.571,0,0,0,1.000,1.000,1.000,-90.00,180.00,-31.50,OPEN,0
655160.575,0,0,0,1.000,1.000,1.000,-90.00,180.00,-31.50,OPEN,0
655160.580,0,0,0,1.000,1.000,1.000,-90.00,180.00,-31.50,OPEN,0
655160.585,0,0,0,1.000,1.000,1.000,-90.00,180.00,-31.50,OPEN,0
655160.590,0,0,0,1.000,1.000,1.000,-90.00,180.00,-31.50,OPEN,0
655160.596,0,0,0,1.000,1.000,1.000,-90.00,180.00,-31.50,OPEN,0
655160.601,0,0,0,1.000,1.000,1.000,-90.00,180.00,-31.50,OPEN,0
655160.605,0,0,0,1.000,1.000,1.000,-90.00,180.00,-31.50,OPEN,0
655160.611,0,0,0,1.000,1.000,1.000,-90.00,180.00,-31.50,OPEN,0
655160.616,0,0,0,1.000,1.000,1.000,-90.00,180.00,-31.50,OPEN,0
655160.621,0,0,0,1.000,1.000,1.000,-90.00,180.00,-31.50,OPEN,0
655160.626,0,0,0,1.000,1.000,1.000,-90.00,180.00,-31.50,OPEN,0
655160.631,0,0,0,1.000,1.000,1.000,-90.00,180.00,-31.50,OPEN,0
655160.636,0,0,0,1.000,1.000,1.000,-90.00,180.00,-31.50,OPEN,0
655160.640,0,0,0,1.000,1.000,1.000,-90.00,180.00,-31.50,OPEN,0
655160.646,0,0,0,1.000,1.000,1.000,-90.00,180.00,-31.50,OPEN,0
655160.650,0,0,0,1.000,1.000,1.000,-90.00,180.00,-31.50,OPEN,0
655160.655,0,0,0,1.000,1.000,1.000,-90.00,180.00,-31.50,OPEN,0
655160.659,0,0,0,1.000,1.000,1.000,-90.00,180.00,-31.50,OPEN,0
655160.665,0,0,0,1.000,1.000,1.000,-90.00,180.00,-31.50,OPEN,0
655160.670,0,0,0,1.000,1.000,1.000,-90.00,180.00,-31.50,OPEN,0
655160.675,0,0,0,1.000,1.000,1.000,-90.00,180.00,-31.50,OPEN,0
655160.682,0,0,0,1.000,1.000,1.000,-90.00,180.00,-31.50,OPEN,0
655160.686,0,0,0,1.000,1.000,1.000,-90.00,180.00,-31.50,OPEN,0
655160.690,0,0,0,1.000,1.000,1.000,-90.00,180.00,-31.50,OPEN,0
655160.697,0,0,0,1.000,1.000,1.000,-90.00,180.00,-31.50,OPEN,0
655160.702,0,0,0,1.000,1.000,1.000,-90.00,180.00,-31.50,OPEN,0
655160.706,0,0,0,1.000,1.000,1.000,-90.00,180.00,-31.50,OPEN,0
655160.712,0,0,0,1.000,1.000,1.000,-90.00,180.00,-31.50,OPEN,0
655160.716,0,0,0,1.000,1.000,1.000,-90.00,180.00,-31.50,OPEN,0
655160.720,0,0,0,1.000,1.000,1.000,-90.00,180.00,-31.50,OPEN,0
655160.725,0,0,0,1.000,1.000,1.000,-90.00,180.00,-31.50,OPEN,0
655160.731,0,0,0,1.000,1.000,1.000,-90.00,180.00,-31.50,OPEN,0
655160.736,0,0,0,1.000,1.000,1.000,-90.00,180.00,-31.50,OPEN,0
655160.741,0,0,0,1.000,1.000,1.000,-90.00,180.00,-31.50,OPEN,0
655160.747,0,0,0,1.000,1.000,1.000,-90.00,180.00,-31.50,OPEN,0
655160.752,0,0,0,1.000,1.000,1.000,-90.00,180.00,-31.50,OPEN,0
655160.758,0,0,0,1.000,1.000,1.000,-90.00,180.00,-31.50,OPEN,0
655160.764,0,0,0,1.000,1.000,1.000,-90.00,180.00,-31.50,OPEN,0
655160.769,0,0,0,1.000,1.000,1.000,-90.00,180.00,-31.50,OPEN,0
655160.774,0,0,0,1.000,1.000,1.000,-90.00,180.00,-31.50,OPEN,0
655160.779,0,0,0,1.000,1.000,1.000,-90.00,180.00,-31.50,OPEN,0
655160.784,0,0,0,1.000,1.000,1.000,-90.00,180.00,-31.50,OPEN,0
655160.788,0,0,0,1.000,1.000,1.000,-90.00,180.00,-31.50,OPEN,0
655160.793,0,0,0,1.000,1.000,1.000,-90.00,180.00,-31.50,OPEN,0
655160.797,0,0,0,1.000,1.000,1.000,-90.00,180.00,-31.50,OPEN,0
655160.802,0,0,0,1.000,1.000,1.000,-90.00,180.00,-31.50,OPEN,0
655160.806,0,0,0,1.000,1.000,1.000,-90.00,180.00,-31.50,OPEN,0
655160.812,0,0,0,1.000,1.000,1.000,-90.00,180.00,-31.50,OPEN,0
655160.816,0,0,0,1.000,1.000,1.000,-90.00,180.00,-31.50,OPEN,0
655160.820,0,0,0,1.000,1.000,1.000,-90.00,180.00,-31.50,OPEN,0
655160.825,0,0,0,1.000,1.000,1.000,-90.00,180.00,-31.50,OPEN,0
655160.830,0,0,0,1.000,1.000,1.000,-90.00,180.00,-31.50,OPEN,0
655160.834,0,0,0,1.000,1.000,1.000,-90.00,180.00,-31.50,OPEN,0
655160.837,0,0,0,1.000,1.000,1.000,-90.00,180.00,-31.50,OPEN,0
655160.842,0,0,0,1.000,1.000,1.000,-90.00,180.00,-31.50,OPEN,0
655160.847,0,0,0,1.000,1.000,1.000,-90.00,180.00,-31.50,OPEN,0
655160.851,0,0,0,1.000,1.000,1.000,-90.00,180.00,-31.50,OPEN,0
655160.856,0,0,0,1.000,1.000,1.000,-90.00,180.00,-31.50,OPEN,0
655160.863,0,0,0,1.000,1.000,1.000,-90.00,180.00,-31.50,OPEN,0
655160.868,0,0,0,1.000,1.000,1.000,-90.00,180.00,-31.50,OPEN,0
655160.873,0,0,0,1.000,1.000,1.000,-90.00,180.00,-31.50,OPEN,0
655160.879,0,0,0,1.000,1.000,1.000,-90.00,180.00,-31.50,OPEN,0
655160.884,0,0,0,1.000,1.000,1.000,-90.00,180.00,-31.50,OPEN,0
655160.888,0,0,0,1.000,1.000,1.000,-90.00,180.00,-31.50,OPEN,0
655160.893,0,0,0,1.000,1.000,1.000,-90.00,180.00,-31.50,OPEN,0
655160.897,0,0,0,1.000,1.000,1.000,-90.00,180.00,-31.50,OPEN,0
655160.901,0,0,0,1.000,1.000,1.000,-90.00,180.00,-31.50,OPEN,0
655160.906,0,0,0,1.000,1.000,1.000,-90.00,180.00,-31.50,OPEN,0
655160.913,0,0,0,1.000,1.000,1.000,-90.00,180.00,-31.50,OPEN,0
