t,hand,elbow,shoulder,p_hand,p_elbow,p_shoulder,J2,J3,J6,grip_state,cmd_sent
671288.320,0,0,0,0.805,1.000,1.000,-90.00,180.00,0.00,OPEN,0
671288.337,0,0,0,0.711,1.000,1.000,-90.00,180.00,0.00,OPEN,0
671288.341,0,0,0,0.996,1.000,1.000,-90.00,180.00,0.00,OPEN,0
671288.347,0,0,0,1.000,1.000,1.000,-90.00,180.00,0.00,OPEN,0
671288.353,0,0,0,1.000,1.000,1.000,-90.00,180.00,0.00,OPEN,0
671288.357,0,0,0,1.000,1.000,1.000,-90.00,180.00,0.00,OPEN,0
671288.362,0,0,0,1.000,1.000,1.000,-90.00,180.00,0.00,OPEN,0
671288.368,0,0,0,1.000,1.000,1.000,-90.00,180.00,0.00,OPEN,0
671288.373,0,0,0,1.000,1.000,1.000,-90.00,180.00,0.00,OPEN,0
671288.378,0,0,0,1.000,1.000,1.000,-90.00,180.00,0.00,OPEN,0
671288.382,0,0,0,1.000,1.000,1.000,-90.00,180.00,0.00,OPEN,0
671288.388,0,0,0,1.000,1.000,1.000,-90.00,180.00,0.00,OPEN,0
671288.392,0,0,0,1.000,1.000,1.000,-90.00,180.00,0.00,OPEN,0
671288.397,0,0,0,1.000,1.000,1.000,-90.00,180.00,0.00,OPEN,0
671288.401,0,0,0,1.000,1.000,1.000,-90.00,180.00,0.00,OPEN,0
671288.406,0,0,0,1.000,1.000,1.000,-90.00,180.00,0.00,OPEN,0
671288.410,0,0,0,1.000,1.000,1.000,-90.00,180.00,0.00,OPEN,0
671288.415,0,0,0,1.000,1.000,1.000,-90.00,180.00,0.00,OPEN,0
671288.421,0,0,0,1.000,1.000,1.000,-90.00,180.00,0.00,OPEN,0
671288.427,0,0,0,1.000,1.000,1.000,-90.00,180.00,0.00,OPEN,0
671288.433,0,0,0,1.000,1.000,1.000,-90.00,180.00,0.00,OPEN,0
671288.438,0,0,0,1.000,1.000,1.000,-90.00,180.00,0.00,OPEN,0
671288.443,0,0,0,1.000,1.000,1.000,-90.00,180.00,0.00,OPEN,0
671288.448,0,0,0,1.000,1.000,1.000,-90.00,180.00,0.00,OPEN,0
671288.454,0,0,0,1.000,1.000,1.000,-90.00,180.00,0.00,OPEN,0
671288.458,0,0,0,1.000,1.000,1.000,-90.00,180.00,0.00,OPEN,0
671288.463,0,0,0,1.000,1.000,1.000,-90.00,180.00,0.00,OPEN,0
671288.468,0,0,0,1.000,1.000,1.000,-90.00,180.00,0.00,OPEN,0
671288.472,0,0,0,1.000,1.000,1.000,-90.00,180.00,0.00,OPEN,0
671288.477,0,0,0,1.000,1.000,1.000,-90.00,180.00,0.00,OPEN,0
671288.482,0,0,0,1.000,1.000,1.000,-90.00,180.00,0.00,OPEN,0
671288.486,0,0,0,1.000,1.000,1.000,-90.00,180.00,0.00,OPEN,0
671288.491,0,0,0,1.000,1.000,1.000,-90.00,180.00,0.00,OPEN,0
671288.495,0,0,0,1.000,1.000,1.000,-90.00,180.00,0.00,OPEN,0
671288.500,0,0,0,1.000,1.000,1.000,-90.00,180.00,0.00,OPEN,0
671288.505,0,0,0,1.000,1.000,1.000,-90.00,180.00,0.00,OPEN,0
671288.509,0,0,0,1.000,1.000,1.000,-90.00,180.00,0.00,OPEN,0
671288.514,0,0,0,1.000,1.000,1.000,-90.00,180.00,0.00,OPEN,0
671288.518,0,0,0,1.000,1.000,1.000,-90.00,180.00,0.00,OPEN,0
671288.523,0,0,0,1.000,1.000,1.000,-90.00,180.00,0.00,OPEN,0
671288.527,0,0,0,1.000,1.000,1.000,-90.00,180.00,0.00,OPEN,0
671288.533,0,0,0,1.000,1.000,1.000,-90.00,180.00,0.00,OPEN,0
671288.538,0,0,0,1.000,1.000,1.000,-90.00,180.00,0.00,OPEN,0
671288.544,0,0,0,1.000,1.000,1.000,-90.00,180.00,0.00,OPEN,0
671288.549,0,0,0,1.000,1.000,1.000,-90.00,180.00,0.00,OPEN,0
671288.555,0,0,0,1.000,1.000,1.000,-90.00,180.00,0.00,OPEN,0
671288.560,0,0,0,1.000,1.000,1.000,-90.00,180.00,0.00,OPEN,0
671288.564,0,0,0,1.000,1.000,1.000,-90.00,180.00,0.00,OPEN,0
671288.570,0,0,0,1.000,1.000,1.000,-90.00,180.00,0.00,OPEN,0
671288.574,0,0,0,1.000,1.000,1.000,-90.00,180.00,0.00,OPEN,0
671288.578,0,0,0,1.000,1.000,1.000,-90.00,180.00,0.00,OPEN,0
671288.583,0,0,0,1.000,1.000,1.000,-90.00,180.00,0.00,OPEN,0
671288.587,0,0,0,1.000,1.000,1.000,-90.00,180.00,0.00,OPEN,0
671288.591,0,0,0,1.000,1.000,1.000,-90.00,180.00,0.00,OPEN,0
671288.594,0,0,0,1.000,1.000,1.000,-90.00,180.00,0.00,OPEN,0
671288.598,0,0,0,1.000,1.000,1.000,-90.00,180.00,0.00,OPEN,0
671288.602,0,0,0,1.000,1.000,1.000,-90.00,180.00,0.00,OPEN,0
671288.607,0,0,0,1.000,1.000,1.000,-90.00,180.00,0.00,OPEN,0
671288.614,0,0,0,1.000,1.000,1.000,-90.00,180.00,0.00,OPEN,0
671288.621,0,0,0,1.000,1.000,1.000,-90.00,180.00,0.00,OPEN,0
671288.626,0,0,0,1.000,1.000,1.000,-90.00,180.00,0.00,OPEN,0
671288.633,0,0,0,1.000,1.000,1.000,-90.00,180.00,0.00,OPEN,0
671288.638,0,0,0,1.000,1.000,1.000,-90.00,180.00,0.00,OPEN,0
671288.643,0,0,0,1.000,1.000,1.000,-90.00,180.00,0.00,OPEN,0
671288.648,0,0,0,1.000,1.000,1.000,-90.00,180.00,0.00,OPEN,0
671288.653,0,0,0,1.000,1.000,1.000,-90.00,180.00,0.00,OPEN,0
671288.658,0,0,0,1.000,1.000,1.000,-90.00,180.00,0.00,OPEN,0
671288.663,0,0,0,1.000,1.000,1.000,-90.00,180.00,0.00,OPEN,0
671288.668,0,0,0,1.000,1.000,1.000,-90.00,180.00,0.00,OPEN,0
671288.672,0,0,0,1.000,1.000,1.000,-90.00,180.00,0.00,OPEN,0
671288.676,0,0,0,1.000,1.000,1.000,-90.00,180.00,0.00,OPEN,0
671288.680,0,0,0,1.000,1.000,1.000,-90.00,180.00,0.00,OPEN,0
671288.685,0,0,0,1.000,1.000,1.000,-90.00,180.00,0.00,OPEN,0
671288.689,0,0,0,1.000,1.000,1.000,-90.00,180.00,0.00,OPEN,0
671288.696,0,0,0,1.000,1.000,1.000,-90.00,180.00,0.00,OPEN,0
671288.701,0,0,0,1.000,1.000,1.000,-90.00,180.00,0.00,OPEN,0
671288.706,0,0,0,1.000,1.000,1.000,-90.00,180.00,0.00,OPEN,0
671288.711,0,0,0,1.000,1.000,1.000,-90.00,180.00,0.00,OPEN,0
671288.716,0,0,0,1.000,1.000,1.000,-90.00,180.00,0.00,OPEN,0
671288.721,0,0,0,1.000,1.000,1.000,-90.00,180.00,0.00,OPEN,0
671288.725,0,0,0,1.000,1.000,1.000,-90.00,180.00,0.00,OPEN,0
671288.730,0,0,0,1.000,1.000,1.000,-90.00,180.00,0.00,OPEN,0
671288.734,0,0,0,1.000,1.000,1.000,-90.00,180.00,0.00,OPEN,0
671288.739,0,0,0,1.000,1.000,1.000,-90.00,180.00,0.00,OPEN,0
671288.744,0,0,0,1.000,1.000,1.000,-90.00,180.00,0.00,OPEN,0
671288.749,0,0,0,1.000,1.000,1.000,-90.00,180.00,0.00,OPEN,0
671288.755,0,0,0,1.000,1.000,1.000,-90.00,180.00,0.00,OPEN,0
671288.759,0,0,0,1.000,1.000,1.000,-90.00,180.00,0.00,OPEN,0
671288.764,0,0,0,1.000,1.000,1.000,-90.00,180.00,0.00,OPEN,0
671288.768,0,0,0,1.000,1.000,1.000,-90.00,180.00,0.00,OPEN,0
671288.773,0,0,0,1.000,1.000,1.000,-90.00,180.00,0.00,OPEN,0
671288.778,0,0,0,1.000,1.000,1.000,-90.00,180.00,0.00,OPEN,0
671288.783,0,0,0,1.000,1.000,1.000,-90.00,180.00,0.00,OPEN,0
671288.790,0,0,0,1.000,1.000,1.000,-90.00,180.00,0.00,OPEN,0
671288.796,0,0,0,1.000,1.000,1.000,-90.00,180.00,0.00,OPEN,0
671288.803,0,0,0,1.000,1.000,1.000,-90.00,180.00,0.00,OPEN,0
671288.809,0,0,0,1.000,1.000,1.000,-90.00,180.00,0.00,OPEN,0
671288.814,0,0,0,1.000,1.000,1.000,-90.00,180.00,0.00,OPEN,0
671288.819,0,0,0,1.000,1.000,1.000,-90.00,180.00,0.00,OPEN,0
671288.825,0,0,0,1.000,1.000,1.000,-90.00,180.00,0.00,OPEN,0
671288.829,0,0,0,1.000,1.000,1.000,-90.00,180.00,0.00,OPEN,0
671288.835,0,0,0,1.000,1.000,1.000,-90.00,180.00,0.00,OPEN,0
671288.840,0,0,0,1.000,1.000,1.000,-90.00,180.00,0.00,OPEN,0
671288.844,0,0,0,1.000,1.000,1.000,-90.00,180.00,0.00,OPEN,0
671288.850,0,0,0,1.000,0.999,1.000,-90.00,180.00,0.00,OPEN,0
671288.855,0,0,0,1.000,0.997,1.000,-90.00,180.00,0.00,OPEN,0
671288.860,0,0,0,1.000,0.994,1.000,-90.00,180.00,0.00,OPEN,0
671288.865,0,0,0,1.000,0.998,1.000,-90.00,180.00,0.00,OPEN,0
671288.871,0,0,0,1.000,0.999,1.000,-90.00,180.00,0.00,OPEN,0
671288.876,0,0,0,1.000,1.000,1.000,-90.00,180.00,0.00,OPEN,0
671288.881,0,0,0,1.000,1.000,1.000,-90.00,180.00,0.00,OPEN,0
671288.886,0,0,0,1.000,1.000,1.000,-90.00,180.00,0.00,OPEN,0
671288.890,0,0,0,1.000,1.000,1.000,-90.00,180.00,0.00,OPEN,0
671288.894,0,0,0,1.000,1.000,1.000,-90.00,180.00,0.00,OPEN,0
671288.899,0,0,0,1.000,1.000,1.000,-90.00,180.00,0.00,OPEN,0
671288.904,0,0,0,1.000,1.000,1.000,-90.00,180.00,0.00,OPEN,0
671288.908,0,0,0,1.000,1.000,1.000,-90.00,180.00,0.00,OPEN,0
671288.912,0,0,0,1.000,1.000,1.000,-90.00,180.00,0.00,OPEN,0
671288.916,0,0,0,0.540,1.000,1.000,-90.00,180.00,0.00,OPEN,0
671288.920,0,0,0,0.866,1.000,1.000,-90.00,180.00,0.00,OPEN,0
671288.924,0,0,0,0.570,1.000,1.000,-90.00,180.00,0.00,OPEN,0
671288.928,0,0,0,0.697,1.000,1.000,-90.00,180.00,0.00,OPEN,0
671288.933,0,0,0,0.604,1.000,1.000,-90.00,180.00,0.00,OPEN,0
671288.937,0,0,0,0.676,1.000,1.000,-90.00,180.00,0.00,OPEN,0
671288.942,0,0,0,0.688,1.000,1.000,-90.00,180.00,0.00,OPEN,0
671288.947,1,0,0,0.960,1.000,1.000,-90.00,180.00,4.50,OPEN,1
671288.953,1,0,0,1.000,1.000,1.000,-90.00,180.00,4.50,OPEN,0
671288.958,1,0,0,1.000,1.000,1.000,-90.00,180.00,4.50,OPEN,0
671288.962,1,0,0,1.000,1.000,1.000,-90.00,180.00,4.50,OPEN,0
671288.967,0,0,0,1.000,1.000,1.000,-90.00,180.00,4.50,OPEN,0
671288.971,0,0,0,1.000,1.000,1.000,-90.00,180.00,4.50,OPEN,0
671288.975,0,0,0,1.000,1.000,1.000,-90.00,180.00,4.50,OPEN,0
671288.979,0,0,0,1.000,1.000,1.000,-90.00,180.00,4.50,OPEN,0
671288.983,0,0,0,1.000,1.000,1.000,-90.00,180.00,4.50,OPEN,0
671288.986,0,0,0,1.000,1.000,1.000,-90.00,180.00,4.50,OPEN,0
671288.990,0,0,0,1.000,1.000,1.000,-90.00,180.00,4.50,OPEN,0
671288.994,0,0,0,1.000,1.000,1.000,-90.00,180.00,4.50,OPEN,0
671288.998,0,0,0,1.000,1.000,1.000,-90.00,180.00,4.50,OPEN,0
671289.003,0,0,0,1.000,1.000,1.000,-90.00,180.00,4.50,OPEN,0
671289.008,0,0,0,1.000,1.000,1.000,-90.00,180.00,4.50,OPEN,0
671289.012,0,0,0,1.000,1.000,1.000,-90.00,180.00,4.50,OPEN,0
671289.017,0,0,0,1.000,1.000,1.000,-90.00,180.00,4.50,OPEN,0
671289.021,0,0,0,1.000,1.000,1.000,-90.00,180.00,4.50,OPEN,0
671289.026,0,0,0,1.000,1.000,1.000,-90.00,180.00,4.50,OPEN,0
671289.031,0,0,0,1.000,1.000,1.000,-90.00,180.00,4.50,OPEN,0
671289.036,0,0,0,1.000,1.000,1.000,-90.00,180.00,4.50,OPEN,0
671289.041,0,0,0,1.000,1.000,1.000,-90.00,180.00,4.50,OPEN,0
671289.047,0,0,0,1.000,1.000,1.000,-90.00,180.00,4.50,OPEN,0
671289.053,0,0,0,1.000,1.000,1.000,-90.00,180.00,4.50,OPEN,0
671289.058,0,0,0,1.000,1.000,1.000,-90.00,180.00,4.50,OPEN,0
671289.063,0,0,0,1.000,1.000,1.000,-90.00,180.00,4.50,OPEN,0
671289.069,0,0,0,1.000,1.000,1.000,-90.00,180.00,4.50,OPEN,0
671289.073,0,0,0,1.000,1.000,1.000,-90.00,180.00,4.50,OPEN,0
671289.078,0,0,0,0.999,1.000,1.000,-90.00,180.00,4.50,OPEN,0
671289.083,0,0,0,1.000,1.000,1.000,-90.00,180.00,4.50,OPEN,0
671289.088,0,0,0,1.000,1.000,1.000,-90.00,180.00,4.50,OPEN,0
671289.092,0,0,0,1.000,1.000,1.000,-90.00,180.00,4.50,OPEN,0
671289.096,0,0,0,1.000,1.000,1.000,-90.00,180.00,4.50,OPEN,0
671289.101,0,0,0,1.000,1.000,1.000,-90.00,180.00,4.50,OPEN,0
671289.106,0,0,0,1.000,1.000,1.000,-90.00,180.00,4.50,OPEN,0
671289.110,0,0,0,1.000,1.000,1.000,-90.00,180.00,4.50,OPEN,0
671289.114,0,0,0,1.000,1.000,1.000,-90.00,180.00,4.50,OPEN,0
671289.118,0,0,0,1.000,1.000,1.000,-90.00,180.00,4.50,OPEN,0
671289.122,0,0,0,1.000,1.000,1.000,-90.00,180.00,4.50,OPEN,0
671289.127,0,0,0,1.000,1.000,1.000,-90.00,180.00,4.50,OPEN,0
671289.131,0,0,0,1.000,1.000,1.000,-90.00,180.00,4.50,OPEN,0
671289.135,0,0,0,1.000,1.000,1.000,-90.00,180.00,4.50,OPEN,0
671289.140,0,0,0,1.000,1.000,1.000,-90.00,180.00,4.50,OPEN,0
671289.144,0,0,0,1.000,1.000,1.000,-90.00,180.00,4.50,OPEN,0
671289.148,0,0,0,1.000,1.000,1.000,-90.00,180.00,4.50,OPEN,0
671289.153,0,0,0,1.000,1.000,1.000,-90.00,180.00,4.50,OPEN,0
671289.158,0,0,0,1.000,1.000,1.000,-90.00,180.00,4.50,OPEN,0
671289.164,0,0,0,0.999,1.000,1.000,-90.00,180.00,4.50,OPEN,0
671289.170,0,0,0,1.000,1.000,1.000,-90.00,180.00,4.50,OPEN,0
671289.175,0,0,0,1.000,1.000,1.000,-90.00,180.00,4.50,OPEN,0
671289.180,0,0,0,1.000,1.000,1.000,-90.00,180.00,4.50,OPEN,0
671289.186,0,0,0,1.000,1.000,1.000,-90.00,180.00,4.50,OPEN,0
671289.190,0,0,0,1.000,1.000,1.000,-90.00,180.00,4.50,OPEN,0
671289.195,0,0,0,1.000,1.000,1.000,-90.00,180.00,4.50,OPEN,0
671289.200,0,0,0,1.000,1.000,1.000,-90.00,180.00,4.50,OPEN,0
671289.204,0,0,0,1.000,1.000,1.000,-90.00,180.00,4.50,OPEN,0
671289.208,0,0,0,1.000,1.000,1.000,-90.00,180.00,4.50,OPEN,0
671289.212,0,0,0,1.000,1.000,1.000,-90.00,180.00,4.50,OPEN,0
671289.216,0,0,0,1.000,1.000,1.000,-90.00,180.00,4.50,OPEN,0
671289.222,0,0,0,1.000,1.000,1.000,-90.00,180.00,4.50,OPEN,0
671289.228,0,0,0,1.000,1.000,1.000,-90.00,180.00,4.50,OPEN,0
671289.233,0,0,0,1.000,1.000,1.000,-90.00,180.00,4.50,OPEN,0
671289.237,0,0,0,0.999,1.000,1.000,-90.00,180.00,4.50,OPEN,0
671289.242,0,0,0,1.000,1.000,1.000,-90.00,180.00,4.50,OPEN,0
671289.246,0,0,0,1.000,1.000,1.000,-90.00,180.00,4.50,OPEN,0
671289.250,0,0,0,1.000,1.000,1.000,-90.00,180.00,4.50,OPEN,0
671289.255,0,0,0,1.000,1.000,1.000,-90.00,180.00,4.50,OPEN,0
671289.259,0,0,0,1.000,1.000,1.000,-90.00,180.00,4.50,OPEN,0
671289.264,0,0,0,1.000,1.000,1.000,-90.00,180.00,4.50,OPEN,0
671289.269,0,0,0,1.000,1.000,1.000,-90.00,180.00,4.50,OPEN,0
671289.273,0,0,0,1.000,1.000,1.000,-90.00,180.00,4.50,OPEN,0
671289.277,0,0,0,1.000,1.000,1.000,-90.00,180.00,4.50,OPEN,0
671289.281,0,0,0,1.000,1.000,1.000,-90.00,180.00,4.50,OPEN,0
671289.285,0,0,0,1.000,1.000,1.000,-90.00,180.00,4.50,OPEN,0
671289.289,0,0,0,1.000,1.000,1.000,-90.00,180.00,4.50,OPEN,0
671289.294,0,0,0,1.000,1.000,1.000,-90.00,180.00,4.50,OPEN,0
671289.298,0,0,0,1.000,1.000,1.000,-90.00,180.00,4.50,OPEN,0
671289.302,0,0,0,1.000,1.000,1.000,-90.00,180.00,4.50,OPEN,0
671289.306,0,0,0,1.000,1.000,1.000,-90.00,180.00,4.50,OPEN,0
671289.310,0,0,0,1.000,1.000,1.000,-90.00,180.00,4.50,OPEN,0
671289.314,0,0,0,1.000,1.000,1.000,-90.00,180.00,4.50,OPEN,0
671289.319,0,0,0,1.000,1.000,1.000,-90.00,180.00,4.50,OPEN,0
671289.323,0,0,0,1.000,1.000,1.000,-90.00,180.00,4.50,OPEN,0
671289.327,0,0,0,1.000,1.000,1.000,-90.00,180.00,4.50,OPEN,0
671289.332,0,0,0,1.000,1.000,1.000,-90.00,180.00,4.50,OPEN,0
671289.336,0,0,0,1.000,1.000,1.000,-90.00,180.00,4.50,OPEN,0
671289.340,0,0,0,1.000,1.000,1.000,-90.00,180.00,4.50,OPEN,0
671289.344,0,0,0,1.000,1.000,1.000,-90.00,180.00,4.50,OPEN,0
671289.349,0,0,0,1.000,1.000,1.000,-90.00,180.00,4.50,OPEN,0
671289.356,0,0,0,1.000,1.000,1.000,-90.00,180.00,4.50,OPEN,0
671289.360,0,0,0,1.000,1.000,1.000,-90.00,180.00,4.50,OPEN,0
671289.364,0,0,0,1.000,1.000,1.000,-90.00,180.00,4.50,OPEN,0
671289.369,0,0,0,1.000,1.000,1.000,-90.00,180.00,4.50,OPEN,0
671289.373,0,0,0,1.000,1.000,1.000,-90.00,180.00,4.50,OPEN,0
671289.377,0,0,0,1.000,1.000,1.000,-90.00,180.00,4.50,OPEN,0
671289.382,0,0,0,1.000,1.000,1.000,-90.00,180.00,4.50,OPEN,0
671289.386,0,0,0,1.000,1.000,1.000,-90.00,180.00,4.50,OPEN,0
671289.390,0,0,0,1.000,1.000,1.000,-90.00,180.00,4.50,OPEN,0
671289.394,0,0,0,1.000,1.000,1.000,-90.00,180.00,4.50,OPEN,0
671289.398,0,0,0,1.000,1.000,1.000,-90.00,180.00,4.50,OPEN,0
671289.402,0,0,0,1.000,1.000,1.000,-90.00,180.00,4.50,OPEN,0
671289.406,0,0,0,1.000,1.000,1.000,-90.00,180.00,4.50,OPEN,0
671289.410,0,0,0,1.000,1.000,1.000,-90.00,180.00,4.50,OPEN,0
671289.414,0,0,0,1.000,1.000,1.000,-90.00,180.00,4.50,OPEN,0
671289.419,0,0,0,1.000,1.000,1.000,-90.00,180.00,4.50,OPEN,0
671289.423,0,0,0,1.000,1.000,1.000,-90.00,180.00,4.50,OPEN,0
671289.428,0,0,0,1.000,1.000,1.000,-90.00,180.00,4.50,OPEN,0
671289.433,0,0,0,1.000,1.000,1.000,-90.00,180.00,4.50,OPEN,0
671289.437,0,0,0,1.000,1.000,1.000,-90.00,180.00,4.50,OPEN,0
671289.442,0,0,0,1.000,1.000,1.000,-90.00,180.00,4.50,OPEN,0
671289.446,0,0,0,1.000,1.000,1.000,-90.00,180.00,4.50,OPEN,0
671289.450,0,0,0,1.000,1.000,1.000,-90.00,180.00,4.50,OPEN,0
671289.455,0,0,0,1.000,1.000,1.000,-90.00,180.00,4.50,OPEN,0
671289.459,0,0,0,1.000,1.000,1.000,-90.00,180.00,4.50,OPEN,0
671289.463,0,0,0,1.000,1.000,1.000,-90.00,180.00,4.50,OPEN,0
671289.467,0,0,0,1.000,1.000,1.000,-90.00,180.00,4.50,OPEN,0
671289.471,0,0,0,1.000,1.000,1.000,-90.00,180.00,4.50,OPEN,0
671289.475,0,0,0,1.000,1.000,1.000,-90.00,180.00,4.50,OPEN,0
671289.479,0,0,0,1.000,1.000,1.000,-90.00,180.00,4.50,OPEN,0
671289.483,0,0,0,1.000,1.000,1.000,-90.00,180.00,4.50,OPEN,0
671289.489,0,0,0,1.000,1.000,1.000,-90.00,180.00,4.50,OPEN,0
671289.493,0,0,0,1.000,1.000,1.000,-90.00,180.00,4.50,OPEN,0
671289.498,0,0,0,1.000,1.000,1.000,-90.00,180.00,4.50,OPEN,0
671289.503,0,0,0,1.000,1.000,1.000,-90.00,180.00,4.50,OPEN,0
671289.508,0,0,0,1.000,1.000,1.000,-90.00,180.00,4.50,OPEN,0
671289.513,0,0,0,1.000,1.000,1.000,-90.00,180.00,4.50,OPEN,0
671289.517,0,0,0,1.000,1.000,1.000,-90.00,180.00,4.50,OPEN,0
671289.521,0,0,0,1.000,1.000,1.000,-90.00,180.00,4.50,OPEN,0
671289.526,0,0,0,1.000,1.000,1.000,-90.00,180.00,4.50,OPEN,0
671289.530,0,0,0,1.000,1.000,1.000,-90.00,180.00,4.50,OPEN,0
671289.535,0,0,0,1.000,1.000,1.000,-90.00,180.00,4.50,OPEN,0
671289.539,0,0,0,1.000,1.000,1.000,-90.00,180.00,4.50,OPEN,0
671289.543,0,0,0,1.000,1.000,1.000,-90.00,180.00,4.50,OPEN,0
671289.547,0,0,0,1.000,1.000,1.000,-90.00,180.00,4.50,OPEN,0
671289.552,0,0,0,1.000,1.000,1.000,-90.00,180.00,4.50,OPEN,0
671289.557,0,0,0,1.000,1.000,1.000,-90.00,180.00,4.50,OPEN,0
671289.561,0,0,0,1.000,1.000,1.000,-90.00,180.00,4.50,OPEN,0
671289.567,0,0,0,0.999,1.000,1.000,-90.00,180.00,4.50,OPEN,0
671289.572,0,0,0,0.866,1.000,1.000,-90.00,180.00,4.50,OPEN,0
671289.577,0,0,0,0.663,1.000,1.000,-90.00,180.00,4.50,OPEN,0
671289.582,0,0,0,0.938,1.000,1.000,-90.00,180.00,4.50,OPEN,0
671289.586,0,0,0,0.994,1.000,1.000,-90.00,180.00,4.50,OPEN,0
671289.590,0,0,0,0.999,1.000,1.000,-90.00,180.00,4.50,OPEN,0
671289.595,0,0,0,1.000,1.000,1.000,-90.00,180.00,4.50,OPEN,0
671289.599,0,0,0,1.000,1.000,1.000,-90.00,180.00,4.50,OPEN,0
671289.604,0,0,0,1.000,1.000,1.000,-90.00,180.00,4.50,OPEN,0
671289.607,0,0,0,1.000,1.000,1.000,-90.00,180.00,4.50,OPEN,0
671289.611,2,0,0,1.000,1.000,1.000,-90.00,180.00,0.00,OPEN,1
671289.615,2,0,0,1.000,1.000,1.000,-90.00,180.00,0.00,OPEN,0
671289.619,2,0,0,1.000,1.000,1.000,-90.00,180.00,0.00,OPEN,0
671289.624,2,0,0,1.000,1.000,1.000,-90.00,180.00,0.00,OPEN,0
671289.628,2,0,0,1.000,1.000,1.000,-90.00,180.00,0.00,OPEN,0
671289.632,2,0,0,1.000,1.000,1.000,-90.00,180.00,0.00,OPEN,0
671289.637,2,0,0,1.000,1.000,1.000,-90.00,180.00,0.00,OPEN,0
671289.641,2,0,0,1.000,1.000,1.000,-90.00,180.00,0.00,OPEN,0
671289.646,2,0,0,1.000,1.000,1.000,-90.00,180.00,0.00,OPEN,0
671289.651,2,0,0,1.000,1.000,1.000,-90.00,180.00,0.00,OPEN,0
671289.656,2,0,0,1.000,1.000,1.000,-90.00,180.00,0.00,OPEN,0
671289.661,2,0,0,1.000,1.000,1.000,-90.00,180.00,0.00,OPEN,0
671289.666,2,0,0,1.000,1.000,1.000,-90.00,180.00,0.00,OPEN,0
671289.671,2,0,0,1.000,1.000,1.000,-90.00,180.00,0.00,OPEN,0
671289.675,2,0,0,1.000,1.000,1.000,-90.00,180.00,0.00,OPEN,0
671289.680,2,0,0,1.000,1.000,1.000,-90.00,180.00,0.00,OPEN,0
671289.685,2,0,0,1.000,1.000,1.000,-90.00,180.00,0.00,OPEN,0
671289.690,2,0,0,1.000,1.000,1.000,-90.00,180.00,0.00,OPEN,0
671289.695,2,0,0,1.000,1.000,1.000,-90.00,180.00,0.00,OPEN,0
671289.699,2,0,0,1.000,1.000,1.000,-90.00,180.00,0.00,OPEN,0
671289.705,2,0,0,1.000,1.000,1.000,-90.00,180.00,0.00,OPEN,0
671289.710,2,0,0,1.000,1.000,1.000,-90.00,180.00,0.00,OPEN,0
671289.714,2,0,0,1.000,1.000,1.000,-90.00,180.00,-4.50,OPEN,1
671289.720,2,0,0,1.000,1.000,1.000,-90.00,180.00,-4.50,OPEN,0
671289.724,2,0,0,1.000,1.000,1.000,-90.00,180.00,-4.50,OPEN,0
671289.729,2,0,0,1.000,1.000,1.000,-90.00,180.00,-4.50,OPEN,0
671289.733,2,0,0,1.000,1.000,1.000,-90.00,180.00,-4.50,OPEN,0
671289.737,2,0,0,1.000,1.000,1.000,-90.00,180.00,-4.50,OPEN,0
671289.741,2,0,0,1.000,1.000,1.000,-90.00,180.00,-4.50,OPEN,0
671289.746,2,0,0,1.000,1.000,1.000,-90.00,180.00,-4.50,OPEN,0
671289.750,2,0,0,1.000,1.000,1.000,-90.00,180.00,-4.50,OPEN,0
671289.754,2,0,0,1.000,1.000,1.000,-90.00,180.00,-4.50,OPEN,0
671289.758,2,0,0,1.000,1.000,1.000,-90.00,180.00,-4.50,OPEN,0
671289.762,2,0,0,1.000,1.000,1.000,-90.00,180.00,-4.50,OPEN,0
671289.767,2,0,0,1.000,1.000,1.000,-90.00,180.00,-4.50,OPEN,0
671289.771,2,0,0,1.000,1.000,1.000,-90.00,180.00,-4.50,OPEN,0
671289.775,2,0,0,1.000,1.000,1.000,-90.00,180.00,-4.50,OPEN,0
671289.779,2,0,0,1.000,1.000,1.000,-90.00,180.00,-4.50,OPEN,0
671289.783,2,0,0,1.000,1.000,1.000,-90.00,180.00,-4.50,OPEN,0
671289.788,2,0,0,1.000,1.000,1.000,-90.00,180.00,-4.50,OPEN,0
671289.792,2,0,0,1.000,1.000,1.000,-90.00,180.00,-4.50,OPEN,0
671289.797,2,0,0,1.000,1.000,1.000,-90.00,180.00,-4.50,OPEN,0
671289.803,2,0,0,1.000,1.000,1.000,-90.00,180.00,-4.50,OPEN,0
671289.807,2,0,0,1.000,1.000,1.000,-90.00,180.00,-4.50,OPEN,0
671289.811,2,0,0,1.000,1.000,1.000,-90.00,180.00,-4.50,OPEN,0
671289.816,2,0,0,1.000,1.000,1.000,-90.00,180.00,-9.00,OPEN,1
671289.821,2,0,0,1.000,1.000,1.000,-90.00,180.00,-9.00,OPEN,0
671289.825,2,0,0,1.000,1.000,1.000,-90.00,180.00,-9.00,OPEN,0
671289.829,2,0,0,1.000,1.000,1.000,-90.00,180.00,-9.00,OPEN,0
671289.834,2,0,0,1.000,1.000,1.000,-90.00,180.00,-9.00,OPEN,0
671289.838,2,0,0,1.000,1.000,1.000,-90.00,180.00,-9.00,OPEN,0
671289.842,2,0,0,1.000,1.000,1.000,-90.00,180.00,-9.00,OPEN,0
671289.847,2,0,0,1.000,1.000,1.000,-90.00,180.00,-9.00,OPEN,0
671289.852,2,0,0,1.000,1.000,1.000,-90.00,180.00,-9.00,OPEN,0
671289.856,2,0,0,1.000,1.000,1.000,-90.00,180.00,-9.00,OPEN,0
671289.860,2,0,0,1.000,1.000,1.000,-90.00,180.00,-9.00,OPEN,0
671289.865,2,0,0,1.000,1.000,1.000,-90.00,180.00,-9.00,OPEN,0
671289.870,2,0,0,1.000,1.000,1.000,-90.00,180.00,-9.00,OPEN,0
671289.875,2,0,0,1.000,1.000,1.000,-90.00,180.00,-9.00,OPEN,0
671289.880,2,0,0,1.000,1.000,1.000,-90.00,180.00,-9.00,OPEN,0
671289.884,2,0,0,1.000,1.000,1.000,-90.00,180.00,-9.00,OPEN,0
671289.888,2,0,0,1.000,1.000,1.000,-90.00,180.00,-9.00,OPEN,0
671289.892,2,0,0,1.000,1.000,1.000,-90.00,180.00,-9.00,OPEN,0
671289.896,2,0,0,1.000,1.000,1.000,-90.00,180.00,-9.00,OPEN,0
671289.901,2,0,0,1.000,1.000,1.000,-90.00,180.00,-9.00,OPEN,0
671289.905,2,0,0,1.000,1.000,1.000,-90.00,180.00,-9.00,OPEN,0
671289.909,2,0,0,1.000,1.000,1.000,-90.00,180.00,-9.00,OPEN,0
671289.913,2,0,0,1.000,1.000,1.000,-90.00,180.00,-9.00,OPEN,0
671289.918,2,0,0,1.000,1.000,1.000,-90.00,180.00,-13.50,OPEN,1
671289.922,2,0,0,1.000,1.000,1.000,-90.00,180.00,-13.50,OPEN,0
671289.927,2,0,0,1.000,1.000,1.000,-90.00,180.00,-13.50,OPEN,0
671289.931,2,0,0,1.000,1.000,1.000,-90.00,180.00,-13.50,OPEN,0
671289.936,2,0,0,1.000,1.000,1.000,-90.00,180.00,-13.50,OPEN,0
671289.940,2,0,0,1.000,1.000,1.000,-90.00,180.00,-13.50,OPEN,0
671289.945,2,0,0,1.000,1.000,1.000,-90.00,180.00,-13.50,OPEN,0
671289.949,2,0,0,1.000,1.000,1.000,-90.00,180.00,-13.50,OPEN,0
671289.953,2,0,0,1.000,1.000,1.000,-90.00,180.00,-13.50,OPEN,0
671289.958,2,0,0,1.000,1.000,1.000,-90.00,180.00,-13.50,OPEN,0
671289.962,2,0,0,1.000,1.000,1.000,-90.00,180.00,-13.50,OPEN,0
671289.966,2,0,0,1.000,1.000,1.000,-90.00,180.00,-13.50,OPEN,0
671289.970,2,0,0,1.000,1.000,1.000,-90.00,180.00,-13.50,OPEN,0
671289.974,2,0,0,1.000,1.000,1.000,-90.00,180.00,-13.50,OPEN,0
671289.978,2,0,0,1.000,1.000,1.000,-90.00,180.00,-13.50,OPEN,0
671289.982,2,0,0,1.000,1.000,1.000,-90.00,180.00,-13.50,OPEN,0
671289.987,2,0,0,1.000,1.000,1.000,-90.00,180.00,-13.50,OPEN,0
671289.992,2,0,0,1.000,1.000,1.000,-90.00,180.00,-13.50,OPEN,0
671289.996,2,0,0,1.000,1.000,1.000,-90.00,180.00,-13.50,OPEN,0
671290.001,2,0,0,1.000,1.000,1.000,-90.00,180.00,-13.50,OPEN,0
671290.005,2,0,0,1.000,1.000,1.000,-90.00,180.00,-13.50,OPEN,0
671290.009,2,0,0,1.000,1.000,1.000,-90.00,180.00,-13.50,OPEN,0
671290.014,2,0,0,1.000,1.000,1.000,-90.00,180.00,-13.50,OPEN,0
671290.018,2,0,0,1.000,1.000,1.000,-90.00,180.00,-18.00,OPEN,1
671290.023,2,0,0,1.000,1.000,1.000,-90.00,180.00,-18.00,OPEN,0
671290.028,2,0,0,1.000,1.000,1.000,-90.00,180.00,-18.00,OPEN,0
671290.033,2,0,0,1.000,1.000,1.000,-90.00,180.00,-18.00,OPEN,0
671290.038,2,0,0,1.000,1.000,1.000,-90.00,180.00,-18.00,OPEN,0
671290.043,2,0,0,1.000,1.000,1.000,-90.00,180.00,-18.00,OPEN,0
671290.048,2,0,0,1.000,1.000,1.000,-90.00,180.00,-18.00,OPEN,0
671290.052,2,0,0,1.000,1.000,1.000,-90.00,180.00,-18.00,OPEN,0
671290.057,2,0,0,1.000,1.000,1.000,-90.00,180.00,-18.00,OPEN,0
671290.061,2,0,0,1.000,1.000,1.000,-90.00,180.00,-18.00,OPEN,0
671290.065,2,0,0,1.000,1.000,1.000,-90.00,180.00,-18.00,OPEN,0
671290.070,2,0,0,1.000,1.000,1.000,-90.00,180.00,-18.00,OPEN,0
671290.074,2,0,0,1.000,1.000,1.000,-90.00,180.00,-18.00,OPEN,0
671290.079,2,0,0,1.000,1.000,1.000,-90.00,180.00,-18.00,OPEN,0
671290.084,2,0,0,1.000,1.000,1.000,-90.00,180.00,-18.00,OPEN,0
671290.089,2,0,0,1.000,1.000,1.000,-90.00,180.00,-18.00,OPEN,0
671290.094,2,0,0,1.000,1.000,1.000,-90.00,180.00,-18.00,OPEN,0
671290.099,2,0,0,1.000,1.000,1.000,-90.00,180.00,-18.00,OPEN,0
671290.104,2,0,0,1.000,1.000,1.000,-90.00,180.00,-18.00,OPEN,0
671290.108,2,0,0,1.000,1.000,1.000,-90.00,180.00,-18.00,OPEN,0
671290.113,2,0,0,1.000,1.000,1.000,-90.00,180.00,-18.00,OPEN,0
671290.117,2,0,0,1.000,1.000,1.000,-90.00,180.00,-18.00,OPEN,0
671290.121,2,0,0,1.000,1.000,1.000,-90.00,180.00,-22.50,OPEN,1
671290.126,2,0,0,1.000,1.000,1.000,-90.00,180.00,-22.50,OPEN,0
671290.130,2,0,0,1.000,1.000,1.000,-90.00,180.00,-22.50,OPEN,0
671290.134,2,0,0,0.999,1.000,1.000,-90.00,180.00,-22.50,OPEN,0
671290.139,2,0,0,0.968,1.000,1.000,-90.00,180.00,-22.50,OPEN,0
671290.144,2,0,0,0.730,1.000,1.000,-90.00,180.00,-22.50,OPEN,0
671290.148,2,0,0,0.954,1.000,1.000,-90.00,180.00,-22.50,OPEN,0
671290.153,2,0,0,0.989,1.000,1.000,-90.00,180.00,-22.50,OPEN,0
671290.158,2,0,0,0.992,1.000,1.000,-90.00,180.00,-22.50,OPEN,0
671290.162,2,0,0,0.988,1.000,1.000,-90.00,180.00,-22.50,OPEN,0
671290.166,2,0,0,0.986,1.000,1.000,-90.00,180.00,-22.50,OPEN,0
671290.170,2,0,0,0.980,1.000,1.000,-90.00,180.00,-22.50,OPEN,0
671290.174,2,0,0,0.875,1.000,1.000,-90.00,180.00,-22.50,OPEN,0
671290.179,2,0,0,0.922,1.000,1.000,-90.00,180.00,-22.50,OPEN,0
671290.183,2,0,0,1.000,1.000,1.000,-90.00,180.00,-22.50,OPEN,0
671290.187,2,0,0,1.000,1.000,1.000,-90.00,180.00,-22.50,OPEN,0
671290.192,2,0,0,1.000,1.000,1.000,-90.00,180.00,-22.50,OPEN,0
671290.196,2,0,0,1.000,1.000,1.000,-90.00,180.00,-22.50,OPEN,0
671290.200,2,0,0,1.000,1.000,1.000,-90.00,180.00,-22.50,OPEN,0
671290.205,2,0,0,1.000,1.000,1.000,-90.00,180.00,-22.50,OPEN,0
671290.209,0,0,0,1.000,1.000,1.000,-90.00,180.00,-22.50,OPEN,0
671290.213,0,0,0,1.000,1.000,1.000,-90.00,180.00,-22.50,OPEN,0
671290.219,0,0,0,1.000,1.000,1.000,-90.00,180.00,-22.50,OPEN,0
671290.225,0,0,0,1.000,1.000,1.000,-90.00,180.00,-22.50,OPEN,0
671290.231,0,0,0,1.000,1.000,1.000,-90.00,180.00,-22.50,OPEN,0
671290.237,0,0,0,1.000,1.000,1.000,-90.00,180.00,-22.50,OPEN,0
671290.242,0,0,0,1.000,1.000,1.000,-90.00,180.00,-22.50,OPEN,0
671290.248,0,0,0,1.000,1.000,1.000,-90.00,180.00,-22.50,OPEN,0
671290.253,0,0,0,1.000,1.000,1.000,-90.00,180.00,-22.50,OPEN,0
671290.258,0,0,0,1.000,1.000,1.000,-90.00,180.00,-22.50,OPEN,0
671290.262,0,0,0,1.000,1.000,1.000,-90.00,180.00,-22.50,OPEN,0
671290.267,0,0,0,1.000,1.000,1.000,-90.00,180.00,-22.50,OPEN,0
671290.271,0,0,0,1.000,1.000,1.000,-90.00,180.00,-22.50,OPEN,0
671290.275,0,0,0,1.000,1.000,1.000,-90.00,180.00,-22.50,OPEN,0
671290.279,0,0,0,1.000,1.000,1.000,-90.00,180.00,-22.50,OPEN,0
671290.283,0,0,0,1.000,1.000,1.000,-90.00,180.00,-22.50,OPEN,0
671290.287,0,0,0,1.000,1.000,1.000,-90.00,180.00,-22.50,OPEN,0
671290.291,0,0,0,1.000,1.000,1.000,-90.00,180.00,-22.50,OPEN,0
671290.295,0,0,0,1.000,1.000,1.000,-90.00,180.00,-22.50,OPEN,0
671290.300,0,0,0,1.000,1.000,1.000,-90.00,180.00,-22.50,OPEN,0
671290.304,0,0,0,1.000,1.000,1.000,-90.00,180.00,-22.50,OPEN,0
671290.308,0,0,0,1.000,1.000,1.000,-90.00,180.00,-22.50,OPEN,0
671290.314,0,0,0,1.000,1.000,1.000,-90.00,180.00,-22.50,OPEN,0
671290.320,0,0,0,1.000,1.000,1.000,-90.00,180.00,-22.50,OPEN,0
671290.325,0,0,0,1.000,1.000,1.000,-90.00,180.00,-22.50,OPEN,0
671290.330,0,0,0,1.000,1.000,1.000,-90.00,180.00,-22.50,OPEN,0
671290.336,0,0,0,1.000,1.000,1.000,-90.00,180.00,-22.50,OPEN,0
671290.340,0,0,0,1.000,1.000,1.000,-90.00,180.00,-22.50,OPEN,0
671290.345,0,0,0,1.000,1.000,1.000,-90.00,180.00,-22.50,OPEN,0
671290.350,0,0,0,1.000,1.000,1.000,-90.00,180.00,-22.50,OPEN,0
671290.356,0,0,0,1.000,1.000,1.000,-90.00,180.00,-22.50,OPEN,0
671290.360,0,0,0,1.000,1.000,1.000,-90.00,180.00,-22.50,OPEN,0
671290.364,0,0,0,1.000,1.000,1.000,-90.00,180.00,-22.50,OPEN,0
671290.368,0,0,0,1.000,1.000,1.000,-90.00,180.00,-22.50,OPEN,0
671290.373,0,0,0,1.000,1.000,1.000,-90.00,180.00,-22.50,OPEN,0
671290.377,0,0,0,1.000,1.000,1.000,-90.00,180.00,-22.50,OPEN,0
671290.381,0,0,0,1.000,1.000,1.000,-90.00,180.00,-22.50,OPEN,0
671290.385,0,0,0,1.000,1.000,1.000,-90.00,180.00,-22.50,OPEN,0
671290.388,0,0,0,1.000,1.000,1.000,-90.00,180.00,-22.50,OPEN,0
671290.393,0,0,0,1.000,1.000,1.000,-90.00,180.00,-22.50,OPEN,0
671290.397,0,0,0,1.000,1.000,1.000,-90.00,180.00,-22.50,OPEN,0
671290.401,0,0,0,1.000,1.000,1.000,-90.00,180.00,-22.50,OPEN,0
671290.405,0,0,0,1.000,1.000,1.000,-90.00,180.00,-22.50,OPEN,0
671290.408,0,0,0,1.000,1.000,1.000,-90.00,180.00,-22.50,OPEN,0
671290.413,0,0,0,1.000,1.000,1.000,-90.00,180.00,-22.50,OPEN,0
671290.418,0,0,0,1.000,1.000,1.000,-90.00,180.00,-22.50,OPEN,0
671290.422,0,0,0,1.000,1.000,1.000,-90.00,180.00,-22.50,OPEN,0
671290.427,0,0,0,1.000,1.000,1.000,-90.00,180.00,-22.50,OPEN,0
671290.431,0,0,0,1.000,1.000,1.000,-90.00,180.00,-22.50,OPEN,0
671290.436,0,0,0,1.000,1.000,1.000,-90.00,180.00,-22.50,OPEN,0
671290.441,0,0,0,1.000,1.000,1.000,-90.00,180.00,-22.50,OPEN,0
671290.446,0,0,0,1.000,1.000,1.000,-90.00,180.00,-22.50,OPEN,0
671290.450,0,0,0,1.000,1.000,1.000,-90.00,180.00,-22.50,OPEN,0
671290.456,0,0,0,1.000,1.000,1.000,-90.00,180.00,-22.50,OPEN,0
671290.461,0,0,0,1.000,1.000,1.000,-90.00,180.00,-22.50,OPEN,0
671290.466,0,0,0,1.000,1.000,1.000,-90.00,180.00,-22.50,OPEN,0
671290.470,0,0,0,1.000,1.000,1.000,-90.00,180.00,-22.50,OPEN,0
671290.475,0,0,0,1.000,1.000,1.000,-90.00,180.00,-22.50,OPEN,0
671290.479,0,0,0,1.000,1.000,1.000,-90.00,180.00,-22.50,OPEN,0
671290.484,0,0,0,1.000,1.000,1.000,-90.00,180.00,-22.50,OPEN,0
671290.488,0,0,0,1.000,1.000,1.000,-90.00,180.00,-22.50,OPEN,0
671290.492,0,0,0,1.000,1.000,1.000,-90.00,180.00,-22.50,OPEN,0
671290.497,0,0,0,1.000,1.000,1.000,-90.00,180.00,-22.50,OPEN,0
671290.501,0,0,0,1.000,1.000,1.000,-90.00,180.00,-22.50,OPEN,0
671290.505,0,0,0,1.000,1.000,1.000,-90.00,180.00,-22.50,OPEN,0
671290.510,0,0,0,1.000,1.000,1.000,-90.00,180.00,-22.50,OPEN,0
671290.514,0,0,0,1.000,1.000,1.000,-90.00,180.00,-22.50,OPEN,0
671290.520,0,0,0,1.000,1.000,1.000,-90.00,180.00,-22.50,OPEN,0
671290.525,0,0,0,1.000,1.000,1.000,-90.00,180.00,-22.50,OPEN,0
671290.531,0,0,0,1.000,1.000,1.000,-90.00,180.00,-22.50,OPEN,0
671290.536,0,0,0,1.000,1.000,1.000,-90.00,180.00,-22.50,OPEN,0
671290.541,0,0,0,1.000,1.000,1.000,-90.00,180.00,-22.50,OPEN,0
671290.545,0,0,0,1.000,1.000,1.000,-90.00,180.00,-22.50,OPEN,0
671290.550,0,0,0,1.000,1.000,1.000,-90.00,180.00,-22.50,OPEN,0
671290.555,0,0,0,1.000,1.000,1.000,-90.00,180.00,-22.50,OPEN,0
671290.559,0,0,0,1.000,1.000,1.000,-90.00,180.00,-22.50,OPEN,0
671290.564,0,0,0,1.000,1.000,1.000,-90.00,180.00,-22.50,OPEN,0
671290.568,0,0,0,1.000,1.000,1.000,-90.00,180.00,-22.50,OPEN,0
671290.572,0,0,0,1.000,1.000,1.000,-90.00,180.00,-22.50,OPEN,0
671290.576,0,0,0,1.000,1.000,1.000,-90.00,180.00,-22.50,OPEN,0
671290.580,0,0,0,1.000,1.000,1.000,-90.00,180.00,-22.50,OPEN,0
671290.584,0,0,0,1.000,1.000,1.000,-90.00,180.00,-22.50,OPEN,0
671290.588,0,0,0,1.000,1.000,1.000,-90.00,180.00,-22.50,OPEN,0
671290.592,0,0,0,1.000,1.000,1.000,-90.00,180.00,-22.50,OPEN,0
671290.596,0,0,0,1.000,1.000,1.000,-90.00,180.00,-22.50,OPEN,0
671290.600,0,0,0,1.000,1.000,1.000,-90.00,180.00,-22.50,OPEN,0
671290.603,0,0,0,1.000,1.000,1.000,-90.00,180.00,-22.50,OPEN,0
671290.608,0,0,0,1.000,1.000,1.000,-90.00,180.00,-22.50,OPEN,0
671290.612,0,0,0,1.000,1.000,1.000,-90.00,180.00,-22.50,OPEN,0
671290.617,0,0,0,1.000,1.000,1.000,-90.00,180.00,-22.50,OPEN,0
671290.621,0,0,0,1.000,1.000,1.000,-90.00,180.00,-22.50,OPEN,0
671290.626,0,0,0,1.000,1.000,1.000,-90.00,180.00,-22.50,OPEN,0
671290.631,0,0,0,1.000,1.000,1.000,-90.00,180.00,-22.50,OPEN,0
671290.635,0,0,0,1.000,1.000,1.000,-90.00,180.00,-22.50,OPEN,0
671290.640,0,0,0,1.000,1.000,1.000,-90.00,180.00,-22.50,OPEN,0
671290.644,0,0,0,1.000,1.000,1.000,-90.00,180.00,-22.50,OPEN,0
671290.649,0,0,0,1.000,1.000,1.000,-90.00,180.00,-22.50,OPEN,0
671290.653,0,0,0,1.000,1.000,1.000,-90.00,180.00,-22.50,OPEN,0
671290.657,0,0,0,1.000,1.000,1.000,-90.00,180.00,-22.50,OPEN,0
671290.661,0,0,0,1.000,1.000,1.000,-90.00,180.00,-22.50,OPEN,0
671290.665,0,0,0,1.000,1.000,1.000,-90.00,180.00,-22.50,OPEN,0
671290.669,0,0,0,1.000,1.000,1.000,-90.00,180.00,-22.50,OPEN,0
671290.673,0,0,0,1.000,1.000,1.000,-90.00,180.00,-22.50,OPEN,0
671290.676,0,0,0,1.000,1.000,1.000,-90.00,180.00,-22.50,OPEN,0
671290.680,0,0,0,1.000,1.000,1.000,-90.00,180.00,-22.50,OPEN,0
671290.684,0,0,0,1.000,1.000,1.000,-90.00,180.00,-22.50,OPEN,0
671290.688,0,0,0,1.000,1.000,1.000,-90.00,180.00,-22.50,OPEN,0
671290.692,0,0,0,1.000,1.000,1.000,-90.00,180.00,-22.50,OPEN,0
671290.703,0,0,0,1.000,1.000,1.000,-90.00,180.00,-22.50,OPEN,0
671290.711,0,0,0,1.000,1.000,1.000,-90.00,180.00,-22.50,OPEN,0
671290.731,0,0,0,1.000,1.000,1.000,-90.00,180.00,-22.50,OPEN,0
671290.746,0,0,0,1.000,1.000,1.000,-90.00,180.00,-22.50,OPEN,0
671290.754,0,0,0,1.000,1.000,1.000,-90.00,180.00,-22.50,OPEN,0
671290.761,0,0,0,1.000,1.000,1.000,-90.00,180.00,-22.50,OPEN,0
671290.768,0,0,0,1.000,1.000,1.000,-90.00,180.00,-22.50,OPEN,0
671290.774,0,0,0,1.000,1.000,1.000,-90.00,180.00,-22.50,OPEN,0
671290.779,0,0,0,1.000,1.000,1.000,-90.00,180.00,-22.50,OPEN,0
671290.784,0,0,0,1.000,1.000,1.000,-90.00,180.00,-22.50,OPEN,0
671290.788,0,0,0,1.000,1.000,1.000,-90.00,180.00,-22.50,OPEN,0
671290.792,0,0,0,1.000,1.000,1.000,-90.00,180.00,-22.50,OPEN,0
671290.797,0,0,0,1.000,1.000,1.000,-90.00,180.00,-22.50,OPEN,0
671290.801,0,0,0,1.000,1.000,1.000,-90.00,180.00,-22.50,OPEN,0
671290.805,0,0,0,1.000,1.000,1.000,-90.00,180.00,-22.50,OPEN,0
671290.810,0,0,0,1.000,1.000,1.000,-90.00,180.00,-22.50,OPEN,0
671290.814,0,0,0,1.000,1.000,1.000,-90.00,180.00,-22.50,OPEN,0
671290.818,0,0,0,1.000,1.000,1.000,-90.00,180.00,-22.50,OPEN,0
671290.822,0,0,0,1.000,1.000,1.000,-90.00,180.00,-22.50,OPEN,0
671290.826,0,0,0,1.000,1.000,1.000,-90.00,180.00,-22.50,OPEN,0
671290.830,0,0,0,1.000,1.000,1.000,-90.00,180.00,-22.50,OPEN,0
671290.835,0,0,0,1.000,1.000,1.000,-90.00,180.00,-22.50,OPEN,0
671290.839,0,0,0,1.000,1.000,1.000,-90.00,180.00,-22.50,OPEN,0
671290.843,0,0,0,0.768,1.000,1.000,-90.00,180.00,-22.50,OPEN,0
671290.847,0,0,0,0.955,1.000,1.000,-90.00,180.00,-22.50,OPEN,0
671290.852,0,0,0,0.990,1.000,1.000,-90.00,180.00,-22.50,OPEN,0
671290.856,0,0,0,0.998,1.000,1.000,-90.00,180.00,-22.50,OPEN,0
671290.860,0,0,0,0.999,1.000,1.000,-90.00,180.00,-22.50,OPEN,0
671290.864,0,0,0,1.000,1.000,1.000,-90.00,180.00,-22.50,OPEN,0
671290.868,0,0,0,1.000,1.000,1.000,-90.00,180.00,-22.50,OPEN,0
671290.873,0,0,0,1.000,1.000,1.000,-90.00,180.00,-22.50,OPEN,0
671290.877,3,0,0,1.000,1.000,1.000,-90.00,180.00,-22.50,CLOSED,0
671290.882,3,0,0,1.000,1.000,1.000,-90.00,180.00,-22.50,CLOSED,0
671290.887,3,0,0,1.000,1.000,1.000,-90.00,180.00,-22.50,CLOSED,0
671290.891,3,0,0,1.000,1.000,1.000,-90.00,180.00,-22.50,CLOSED,0
671290.896,3,0,0,1.000,1.000,1.000,-90.00,180.00,-22.50,CLOSED,0
671290.900,3,0,0,1.000,1.000,1.000,-90.00,180.00,-22.50,CLOSED,0
671290.905,3,0,0,1.000,1.000,1.000,-90.00,180.00,-22.50,CLOSED,0
671290.909,3,0,0,1.000,1.000,1.000,-90.00,180.00,-22.50,CLOSED,0
671290.915,3,0,0,1.000,1.000,1.000,-90.00,180.00,-22.50,CLOSED,0
671290.920,3,0,0,1.000,1.000,1.000,-90.00,180.00,-22.50,CLOSED,0
671290.926,3,0,0,1.000,1.000,1.000,-90.00,180.00,-22.50,CLOSED,0
671290.931,3,0,0,1.000,1.000,1.000,-90.00,180.00,-22.50,CLOSED,0
671290.936,3,0,0,1.000,1.000,1.000,-90.00,180.00,-22.50,CLOSED,0
671290.941,3,0,0,1.000,1.000,1.000,-90.00,180.00,-22.50,CLOSED,0
671290.946,3,0,0,1.000,1.000,1.000,-90.00,180.00,-22.50,CLOSED,0
671290.951,3,0,0,1.000,1.000,1.000,-90.00,180.00,-22.50,CLOSED,0
671290.956,3,0,0,1.000,1.000,1.000,-90.00,180.00,-22.50,CLOSED,0
671290.960,3,0,0,1.000,1.000,1.000,-90.00,180.00,-22.50,CLOSED,0
671290.965,3,0,0,1.000,1.000,1.000,-90.00,180.00,-22.50,CLOSED,0
671290.970,3,0,0,1.000,1.000,1.000,-90.00,180.00,-22.50,CLOSED,0
671290.974,3,0,0,1.000,1.000,1.000,-90.00,180.00,-22.50,CLOSED,0
671290.979,3,0,0,1.000,1.000,1.000,-90.00,180.00,-22.50,CLOSED,0
671290.983,3,0,0,1.000,1.000,1.000,-90.00,180.00,-22.50,CLOSED,0
671290.988,3,0,0,1.000,1.000,1.000,-90.00,180.00,-22.50,CLOSED,0
671290.992,3,0,0,1.000,1.000,1.000,-90.00,180.00,-22.50,CLOSED,0
671290.996,3,0,0,1.000,1.000,1.000,-90.00,180.00,-22.50,CLOSED,0
671291.000,3,0,0,1.000,1.000,1.000,-90.00,180.00,-22.50,CLOSED,0
671291.004,3,0,0,1.000,1.000,1.000,-90.00,180.00,-22.50,CLOSED,0
671291.008,3,0,0,1.000,1.000,1.000,-90.00,180.00,-22.50,CLOSED,0
671291.012,3,0,0,1.000,1.000,1.000,-90.00,180.00,-22.50,CLOSED,0
671291.017,3,0,0,1.000,1.000,1.000,-90.00,180.00,-22.50,CLOSED,0
671291.021,3,0,0,1.000,1.000,1.000,-90.00,180.00,-22.50,CLOSED,0
671291.025,3,0,0,1.000,1.000,1.000,-90.00,180.00,-22.50,CLOSED,0
671291.029,3,0,0,1.000,1.000,1.000,-90.00,180.00,-22.50,CLOSED,0
671291.034,3,0,0,1.000,1.000,1.000,-90.00,180.00,-22.50,CLOSED,0
671291.038,3,0,0,1.000,1.000,1.000,-90.00,180.00,-22.50,CLOSED,0
671291.043,3,0,0,1.000,1.000,1.000,-90.00,180.00,-22.50,CLOSED,0
671291.047,3,0,0,1.000,1.000,1.000,-90.00,180.00,-22.50,CLOSED,0
671291.052,3,0,0,1.000,1.000,1.000,-90.00,180.00,-22.50,CLOSED,0
671291.056,3,0,0,1.000,1.000,1.000,-90.00,180.00,-22.50,CLOSED,0
671291.062,3,0,0,1.000,1.000,1.000,-90.00,180.00,-22.50,CLOSED,0
671291.067,3,0,0,1.000,1.000,1.000,-90.00,180.00,-22.50,CLOSED,0
671291.072,3,0,0,1.000,1.000,1.000,-90.00,180.00,-22.50,CLOSED,0
671291.077,3,0,0,1.000,1.000,1.000,-90.00,180.00,-22.50,CLOSED,0
671291.082,3,0,0,1.000,1.000,1.000,-90.00,180.00,-22.50,CLOSED,0
671291.087,3,0,0,1.000,1.000,1.000,-90.00,180.00,-22.50,CLOSED,0
671291.093,3,0,0,1.000,1.000,1.000,-90.00,180.00,-22.50,CLOSED,0
671291.097,3,0,0,1.000,1.000,1.000,-90.00,180.00,-22.50,CLOSED,0
671291.102,3,0,0,1.000,1.000,1.000,-90.00,180.00,-22.50,CLOSED,0
671291.106,3,0,0,1.000,1.000,1.000,-90.00,180.00,-22.50,CLOSED,0
671291.111,3,0,0,1.000,1.000,1.000,-90.00,180.00,-22.50,CLOSED,0
671291.115,3,0,0,1.000,1.000,1.000,-90.00,180.00,-22.50,CLOSED,0
671291.119,3,0,0,1.000,1.000,1.000,-90.00,180.00,-22.50,CLOSED,0
671291.122,3,0,0,1.000,1.000,1.000,-90.00,180.00,-22.50,CLOSED,0
671291.127,3,0,0,1.000,1.000,1.000,-90.00,180.00,-22.50,CLOSED,0
671291.131,3,0,0,1.000,1.000,1.000,-90.00,180.00,-22.50,CLOSED,0
671291.136,3,0,0,1.000,1.000,1.000,-90.00,180.00,-22.50,CLOSED,0
671291.140,3,0,0,1.000,1.000,1.000,-90.00,180.00,-22.50,CLOSED,0
671291.144,3,0,0,1.000,1.000,1.000,-90.00,180.00,-22.50,CLOSED,0
671291.149,3,0,0,1.000,1.000,1.000,-90.00,180.00,-22.50,CLOSED,0
671291.154,3,0,0,1.000,1.000,1.000,-90.00,180.00,-22.50,CLOSED,0
671291.158,3,0,0,1.000,1.000,1.000,-90.00,180.00,-22.50,CLOSED,0
671291.163,3,0,0,1.000,1.000,1.000,-90.00,180.00,-22.50,CLOSED,0
671291.167,3,0,0,1.000,1.000,1.000,-90.00,180.00,-22.50,CLOSED,0
671291.172,3,0,0,1.000,1.000,1.000,-90.00,180.00,-22.50,CLOSED,0
671291.176,3,0,0,1.000,1.000,1.000,-90.00,180.00,-22.50,CLOSED,0
671291.180,3,0,0,1.000,1.000,1.000,-90.00,180.00,-22.50,CLOSED,0
671291.184,3,0,0,1.000,1.000,1.000,-90.00,180.00,-22.50,CLOSED,0
671291.189,3,0,0,1.000,1.000,1.000,-90.00,180.00,-22.50,CLOSED,0
671291.193,3,0,0,1.000,1.000,1.000,-90.00,180.00,-22.50,CLOSED,0
671291.198,3,0,0,1.000,1.000,1.000,-90.00,180.00,-22.50,CLOSED,0
671291.203,3,0,0,1.000,1.000,1.000,-90.00,180.00,-22.50,CLOSED,0
671291.208,3,0,0,1.000,1.000,1.000,-90.00,180.00,-22.50,CLOSED,0
671291.214,3,0,0,1.000,1.000,1.000,-90.00,180.00,-22.50,CLOSED,0
671291.219,3,0,0,1.000,1.000,1.000,-90.00,180.00,-22.50,CLOSED,0
671291.224,3,0,0,1.000,1.000,1.000,-90.00,180.00,-22.50,CLOSED,0
671291.228,3,0,0,1.000,1.000,1.000,-90.00,180.00,-22.50,CLOSED,0
671291.232,3,0,0,1.000,1.000,1.000,-90.00,180.00,-22.50,CLOSED,0
671291.237,3,0,0,1.000,1.000,1.000,-90.00,180.00,-22.50,CLOSED,0
671291.241,3,0,0,1.000,1.000,1.000,-90.00,180.00,-22.50,CLOSED,0
671291.246,3,0,0,1.000,1.000,1.000,-90.00,180.00,-22.50,CLOSED,0
671291.251,3,0,0,1.000,1.000,1.000,-90.00,180.00,-22.50,CLOSED,0
671291.255,3,0,0,1.000,1.000,1.000,-90.00,180.00,-22.50,CLOSED,0
671291.260,3,0,0,1.000,1.000,1.000,-90.00,180.00,-22.50,CLOSED,0
671291.265,3,0,0,1.000,1.000,1.000,-90.00,180.00,-22.50,CLOSED,0
671291.271,3,0,0,1.000,1.000,1.000,-90.00,180.00,-22.50,CLOSED,0
671291.276,3,0,0,1.000,1.000,1.000,-90.00,180.00,-22.50,CLOSED,0
671291.281,3,0,0,1.000,1.000,1.000,-90.00,180.00,-22.50,CLOSED,0
671291.285,3,0,0,1.000,1.000,1.000,-90.00,180.00,-22.50,CLOSED,0
671291.290,3,0,0,1.000,1.000,1.000,-90.00,180.00,-22.50,CLOSED,0
671291.294,3,0,0,1.000,1.000,1.000,-90.00,180.00,-22.50,CLOSED,0
671291.298,3,0,0,1.000,1.000,1.000,-90.00,180.00,-22.50,CLOSED,0
671291.303,3,0,0,1.000,1.000,1.000,-90.00,180.00,-22.50,CLOSED,0
671291.307,3,0,0,1.000,1.000,1.000,-90.00,180.00,-22.50,CLOSED,0
671291.310,3,0,0,1.000,1.000,1.000,-90.00,180.00,-22.50,CLOSED,0
671291.316,3,0,0,1.000,1.000,1.000,-90.00,180.00,-22.50,CLOSED,0
671291.323,3,0,0,1.000,1.000,1.000,-90.00,180.00,-22.50,CLOSED,0
671291.331,3,0,0,1.000,1.000,1.000,-90.00,180.00,-22.50,CLOSED,0
671291.338,3,0,0,1.000,1.000,1.000,-90.00,180.00,-22.50,CLOSED,0
671291.344,3,0,0,1.000,1.000,1.000,-90.00,180.00,-22.50,CLOSED,0
671291.351,3,0,0,1.000,1.000,1.000,-90.00,180.00,-22.50,CLOSED,0
671291.357,3,0,0,1.000,1.000,1.000,-90.00,180.00,-22.50,CLOSED,0
671291.362,3,0,0,1.000,1.000,1.000,-90.00,180.00,-22.50,CLOSED,0
671291.367,3,0,0,1.000,1.000,1.000,-90.00,180.00,-22.50,CLOSED,0
671291.372,3,0,0,1.000,1.000,1.000,-90.00,180.00,-22.50,CLOSED,0
671291.377,3,0,0,1.000,1.000,1.000,-90.00,180.00,-22.50,CLOSED,0
671291.381,3,0,0,1.000,1.000,1.000,-90.00,180.00,-22.50,CLOSED,0
671291.385,3,0,0,1.000,1.000,1.000,-90.00,180.00,-22.50,CLOSED,0
671291.390,3,0,0,1.000,1.000,1.000,-90.00,180.00,-22.50,CLOSED,0
671291.394,3,0,0,1.000,1.000,1.000,-90.00,180.00,-22.50,CLOSED,0
671291.398,3,0,0,1.000,1.000,1.000,-90.00,180.00,-22.50,CLOSED,0
671291.403,3,0,0,1.000,1.000,1.000,-90.00,180.00,-22.50,CLOSED,0
671291.408,3,0,0,1.000,1.000,1.000,-90.00,180.00,-22.50,CLOSED,0
671291.412,3,0,0,1.000,1.000,1.000,-90.00,180.00,-22.50,CLOSED,0
671291.417,3,0,0,1.000,1.000,1.000,-90.00,180.00,-22.50,CLOSED,0
671291.422,3,0,0,1.000,1.000,1.000,-90.00,180.00,-22.50,CLOSED,0
671291.427,3,0,0,1.000,1.000,1.000,-90.00,180.00,-22.50,CLOSED,0
671291.431,3,0,0,0.998,1.000,1.000,-90.00,180.00,-22.50,CLOSED,0
671291.436,3,0,0,0.973,1.000,1.000,-90.00,180.00,-22.50,CLOSED,0
671291.440,3,0,0,0.588,1.000,1.000,-90.00,180.00,-22.50,CLOSED,0
671291.445,3,0,0,1.000,1.000,1.000,-90.00,180.00,-22.50,CLOSED,0
671291.450,3,0,0,1.000,1.000,1.000,-90.00,180.00,-22.50,CLOSED,0
671291.455,3,0,0,1.000,1.000,1.000,-90.00,180.00,-22.50,CLOSED,0
671291.459,3,0,0,1.000,1.000,1.000,-90.00,180.00,-22.50,CLOSED,0
671291.464,3,0,0,1.000,1.000,1.000,-90.00,180.00,-22.50,CLOSED,0
671291.469,3,0,0,1.000,1.000,1.000,-90.00,180.00,-22.50,CLOSED,0
671291.473,3,0,0,1.000,1.000,1.000,-90.00,180.00,-22.50,CLOSED,0
671291.477,0,0,0,1.000,1.000,1.000,-90.00,180.00,-22.50,CLOSED,0
671291.481,0,0,0,1.000,1.000,1.000,-90.00,180.00,-22.50,CLOSED,0
671291.485,0,0,0,1.000,1.000,1.000,-90.00,180.00,-22.50,CLOSED,0
671291.489,0,0,0,1.000,1.000,1.000,-90.00,180.00,-22.50,CLOSED,0
671291.494,0,0,0,1.000,1.000,1.000,-90.00,180.00,-22.50,CLOSED,0
671291.498,0,0,0,1.000,1.000,1.000,-90.00,180.00,-22.50,CLOSED,0
671291.502,0,0,0,1.000,1.000,1.000,-90.00,180.00,-22.50,CLOSED,0
671291.506,0,0,0,1.000,1.000,1.000,-90.00,180.00,-22.50,CLOSED,0
671291.511,0,0,0,1.000,1.000,1.000,-90.00,180.00,-22.50,CLOSED,0
671291.514,0,0,0,1.000,1.000,1.000,-90.00,180.00,-22.50,CLOSED,0
671291.519,0,0,0,1.000,1.000,1.000,-90.00,180.00,-22.50,CLOSED,0
671291.522,0,0,0,1.000,1.000,1.000,-90.00,180.00,-22.50,CLOSED,0
671291.527,0,0,0,1.000,1.000,1.000,-90.00,180.00,-22.50,CLOSED,0
671291.531,0,0,0,1.000,1.000,1.000,-90.00,180.00,-22.50,CLOSED,0
671291.535,0,0,0,1.000,1.000,1.000,-90.00,180.00,-22.50,CLOSED,0
671291.539,0,0,0,1.000,1.000,1.000,-90.00,180.00,-22.50,CLOSED,0
671291.544,0,0,0,1.000,1.000,1.000,-90.00,180.00,-22.50,CLOSED,0
671291.548,0,0,0,1.000,1.000,1.000,-90.00,180.00,-22.50,CLOSED,0
671291.553,0,0,0,1.000,1.000,1.000,-90.00,180.00,-22.50,CLOSED,0
671291.557,0,0,0,1.000,1.000,1.000,-90.00,180.00,-22.50,CLOSED,0
671291.561,0,0,0,1.000,1.000,1.000,-90.00,180.00,-22.50,CLOSED,0
671291.565,0,0,0,1.000,1.000,1.000,-90.00,180.00,-22.50,CLOSED,0
671291.570,0,0,0,1.000,1.000,1.000,-90.00,180.00,-22.50,CLOSED,0
671291.574,0,0,0,1.000,1.000,1.000,-90.00,180.00,-22.50,CLOSED,0
671291.578,0,0,0,1.000,1.000,1.000,-90.00,180.00,-22.50,CLOSED,0
671291.582,0,0,0,1.000,1.000,1.000,-90.00,180.00,-22.50,CLOSED,0
671291.586,0,0,0,1.000,1.000,1.000,-90.00,180.00,-22.50,CLOSED,0
671291.591,0,0,0,1.000,1.000,1.000,-90.00,180.00,-22.50,CLOSED,0
671291.595,0,0,0,1.000,1.000,1.000,-90.00,180.00,-22.50,CLOSED,0
671291.599,0,0,0,1.000,1.000,1.000,-90.00,180.00,-22.50,CLOSED,0
671291.603,0,0,0,1.000,1.000,1.000,-90.00,180.00,-22.50,CLOSED,0
671291.608,0,0,0,1.000,1.000,1.000,-90.00,180.00,-22.50,CLOSED,0
671291.612,0,0,0,1.000,1.000,1.000,-90.00,180.00,-22.50,CLOSED,0
671291.617,0,0,0,1.000,1.000,1.000,-90.00,180.00,-22.50,CLOSED,0
671291.622,0,0,0,1.000,1.000,1.000,-90.00,180.00,-22.50,CLOSED,0
671291.626,0,0,0,1.000,1.000,1.000,-90.00,180.00,-22.50,CLOSED,0
671291.630,0,0,0,1.000,1.000,1.000,-90.00,180.00,-22.50,CLOSED,0
671291.634,0,0,0,1.000,1.000,1.000,-90.00,180.00,-22.50,CLOSED,0
671291.639,0,0,0,1.000,1.000,1.000,-90.00,180.00,-22.50,CLOSED,0
671291.644,0,0,0,1.000,1.000,1.000,-90.00,180.00,-22.50,CLOSED,0
671291.648,0,0,0,1.000,1.000,1.000,-90.00,180.00,-22.50,CLOSED,0
671291.652,0,0,0,1.000,1.000,1.000,-90.00,180.00,-22.50,CLOSED,0
671291.656,0,0,0,1.000,1.000,1.000,-90.00,180.00,-22.50,CLOSED,0
671291.660,0,0,0,1.000,1.000,1.000,-90.00,180.00,-22.50,CLOSED,0
671291.664,0,0,0,1.000,1.000,1.000,-90.00,180.00,-22.50,CLOSED,0
671291.667,0,0,0,1.000,1.000,1.000,-90.00,180.00,-22.50,CLOSED,0
671291.671,0,0,0,1.000,1.000,1.000,-90.00,180.00,-22.50,CLOSED,0
671291.675,0,0,0,1.000,1.000,1.000,-90.00,180.00,-22.50,CLOSED,0
671291.680,0,0,0,1.000,1.000,1.000,-90.00,180.00,-22.50,CLOSED,0
671291.686,0,0,0,1.000,1.000,1.000,-90.00,180.00,-22.50,CLOSED,0
671291.690,0,0,0,1.000,1.000,1.000,-90.00,180.00,-22.50,CLOSED,0
671291.695,0,0,0,1.000,1.000,1.000,-90.00,180.00,-22.50,CLOSED,0
671291.700,0,0,0,1.000,1.000,1.000,-90.00,180.00,-22.50,CLOSED,0
671291.705,0,0,0,1.000,1.000,1.000,-90.00,180.00,-22.50,CLOSED,0
671291.709,0,0,0,1.000,1.000,1.000,-90.00,180.00,-22.50,CLOSED,0
671291.713,0,0,0,1.000,1.000,1.000,-90.00,180.00,-22.50,CLOSED,0
671291.717,0,0,0,1.000,1.000,1.000,-90.00,180.00,-22.50,CLOSED,0
671291.722,0,0,0,1.000,1.000,1.000,-90.00,180.00,-22.50,CLOSED,0
671291.726,0,0,0,1.000,1.000,1.000,-90.00,180.00,-22.50,CLOSED,0
671291.730,0,0,0,1.000,1.000,1.000,-90.00,180.00,-22.50,CLOSED,0
671291.735,0,0,0,1.000,1.000,1.000,-90.00,180.00,-22.50,CLOSED,0
671291.739,0,0,0,1.000,1.000,1.000,-90.00,180.00,-22.50,CLOSED,0
671291.743,0,0,0,1.000,1.000,1.000,-90.00,180.00,-22.50,CLOSED,0
671291.748,0,0,0,1.000,1.000,1.000,-90.00,180.00,-22.50,CLOSED,0
671291.752,0,0,0,1.000,1.000,1.000,-90.00,180.00,-22.50,CLOSED,0
671291.756,0,0,0,1.000,1.000,1.000,-90.00,180.00,-22.50,CLOSED,0
671291.760,0,0,0,1.000,1.000,1.000,-90.00,180.00,-22.50,CLOSED,0
671291.764,0,0,0,1.000,1.000,1.000,-90.00,180.00,-22.50,CLOSED,0
671291.768,0,0,0,1.000,1.000,1.000,-90.00,180.00,-22.50,CLOSED,0
671291.771,0,0,0,1.000,1.000,1.000,-90.00,180.00,-22.50,CLOSED,0
671291.775,0,0,0,1.000,1.000,1.000,-90.00,180.00,-22.50,CLOSED,0
671291.779,0,0,0,1.000,1.000,1.000,-90.00,180.00,-22.50,CLOSED,0
671291.783,0,0,0,1.000,1.000,1.000,-90.00,180.00,-22.50,CLOSED,0
671291.787,0,0,0,1.000,1.000,1.000,-90.00,180.00,-22.50,CLOSED,0
671291.791,0,0,0,1.000,1.000,1.000,-90.00,180.00,-22.50,CLOSED,0
671291.796,0,0,0,1.000,1.000,1.000,-90.00,180.00,-22.50,CLOSED,0
671291.801,0,0,0,1.000,1.000,1.000,-90.00,180.00,-22.50,CLOSED,0
671291.805,0,0,0,1.000,1.000,1.000,-90.00,180.00,-22.50,CLOSED,0
671291.810,0,0,0,1.000,1.000,1.000,-90.00,180.00,-22.50,CLOSED,0
671291.814,0,0,0,1.000,1.000,1.000,-90.00,180.00,-22.50,CLOSED,0
671291.819,0,0,0,1.000,1.000,1.000,-90.00,180.00,-22.50,CLOSED,0
671291.823,0,0,0,1.000,1.000,1.000,-90.00,180.00,-22.50,CLOSED,0
671291.827,0,0,0,1.000,1.000,1.000,-90.00,180.00,-22.50,CLOSED,0
671291.831,0,0,0,1.000,1.000,1.000,-90.00,180.00,-22.50,CLOSED,0
671291.836,0,0,0,1.000,1.000,1.000,-90.00,180.00,-22.50,CLOSED,0
671291.840,0,0,0,1.000,1.000,1.000,-90.00,180.00,-22.50,CLOSED,0
671291.845,0,0,0,1.000,1.000,1.000,-90.00,180.00,-22.50,CLOSED,0
671291.849,0,0,0,1.000,1.000,1.000,-90.00,180.00,-22.50,CLOSED,0
671291.853,0,0,0,1.000,1.000,1.000,-90.00,180.00,-22.50,CLOSED,0
671291.857,0,0,0,1.000,1.000,1.000,-90.00,180.00,-22.50,CLOSED,0
671291.862,0,0,0,1.000,1.000,1.000,-90.00,180.00,-22.50,CLOSED,0
671291.866,0,0,0,1.000,1.000,1.000,-90.00,180.00,-22.50,CLOSED,0
671291.870,0,0,0,1.000,1.000,1.000,-90.00,180.00,-22.50,CLOSED,0
671291.874,0,0,0,1.000,1.000,1.000,-90.00,180.00,-22.50,CLOSED,0
671291.878,0,0,0,1.000,1.000,1.000,-90.00,180.00,-22.50,CLOSED,0
671291.882,0,0,0,1.000,1.000,1.000,-90.00,180.00,-22.50,CLOSED,0
671291.886,0,0,0,1.000,1.000,1.000,-90.00,180.00,-22.50,CLOSED,0
671291.890,0,0,0,1.000,1.000,1.000,-90.00,180.00,-22.50,CLOSED,0
671291.895,0,0,0,1.000,1.000,1.000,-90.00,180.00,-22.50,CLOSED,0
671291.899,0,0,0,1.000,1.000,1.000,-90.00,180.00,-22.50,CLOSED,0
671291.904,0,0,0,1.000,1.000,1.000,-90.00,180.00,-22.50,CLOSED,0
671291.908,0,0,0,1.000,1.000,1.000,-90.00,180.00,-22.50,CLOSED,0
671291.912,0,0,0,1.000,1.000,1.000,-90.00,180.00,-22.50,CLOSED,0
671291.916,0,0,0,1.000,1.000,1.000,-90.00,180.00,-22.50,CLOSED,0
671291.921,0,0,0,1.000,1.000,1.000,-90.00,180.00,-22.50,CLOSED,0
671291.925,0,0,0,1.000,1.000,1.000,-90.00,180.00,-22.50,CLOSED,0
671291.929,0,0,0,1.000,1.000,1.000,-90.00,180.00,-22.50,CLOSED,0
671291.934,0,0,0,1.000,1.000,1.000,-90.00,180.00,-22.50,CLOSED,0
671291.938,0,0,0,1.000,1.000,1.000,-90.00,180.00,-22.50,CLOSED,0
671291.942,0,0,0,1.000,1.000,1.000,-90.00,180.00,-22.50,CLOSED,0
671291.946,0,0,0,1.000,1.000,1.000,-90.00,180.00,-22.50,CLOSED,0
671291.950,0,0,0,1.000,1.000,1.000,-90.00,180.00,-22.50,CLOSED,0
671291.954,0,0,0,1.000,1.000,1.000,-90.00,180.00,-22.50,CLOSED,0
671291.958,0,0,0,1.000,1.000,1.000,-90.00,180.00,-22.50,CLOSED,0
671291.963,0,0,0,1.000,1.000,1.000,-90.00,180.00,-22.50,CLOSED,0
671291.967,0,0,0,1.000,1.000,1.000,-90.00,180.00,-22.50,CLOSED,0
671291.972,0,0,0,1.000,1.000,1.000,-90.00,180.00,-22.50,CLOSED,0
671291.976,0,0,0,1.000,1.000,1.000,-90.00,180.00,-22.50,CLOSED,0
671291.980,0,0,0,1.000,1.000,1.000,-90.00,180.00,-22.50,CLOSED,0
671291.986,0,0,0,1.000,1.000,1.000,-90.00,180.00,-22.50,CLOSED,0
671291.990,0,0,0,1.000,1.000,1.000,-90.00,180.00,-22.50,CLOSED,0
671291.994,0,0,0,1.000,1.000,1.000,-90.00,180.00,-22.50,CLOSED,0
671291.999,0,0,0,1.000,1.000,1.000,-90.00,180.00,-22.50,CLOSED,0
671292.004,0,0,0,1.000,1.000,1.000,-90.00,180.00,-22.50,CLOSED,0
671292.010,0,0,0,1.000,1.000,1.000,-90.00,180.00,-22.50,CLOSED,0
671292.017,0,0,0,1.000,1.000,1.000,-90.00,180.00,-22.50,CLOSED,0
671292.023,0,0,0,1.000,1.000,1.000,-90.00,180.00,-22.50,CLOSED,0
671292.029,0,0,0,1.000,1.000,1.000,-90.00,180.00,-22.50,CLOSED,0
671292.034,0,0,0,1.000,1.000,1.000,-90.00,180.00,-22.50,CLOSED,0
671292.039,0,0,0,1.000,1.000,1.000,-90.00,180.00,-22.50,CLOSED,0
671292.043,0,0,0,1.000,1.000,1.000,-90.00,180.00,-22.50,CLOSED,0
671292.048,0,0,0,1.000,1.000,1.000,-90.00,180.00,-22.50,CLOSED,0
671292.052,0,0,0,1.000,1.000,1.000,-90.00,180.00,-22.50,CLOSED,0
671292.056,0,0,0,1.000,1.000,1.000,-90.00,180.00,-22.50,CLOSED,0
671292.060,0,0,0,1.000,1.000,1.000,-90.00,180.00,-22.50,CLOSED,0
671292.065,0,0,0,1.000,1.000,1.000,-90.00,180.00,-22.50,CLOSED,0
671292.070,0,0,0,0.998,1.000,1.000,-90.00,180.00,-22.50,CLOSED,0
671292.074,0,0,0,0.993,0.998,1.000,-90.00,180.00,-22.50,CLOSED,0
671292.078,0,0,0,0.980,0.978,1.000,-90.00,180.00,-22.50,CLOSED,0
671292.082,0,0,0,0.972,0.957,1.000,-90.00,180.00,-22.50,CLOSED,0
671292.086,0,0,0,0.958,1.000,1.000,-90.00,180.00,-22.50,CLOSED,0
671292.090,0,0,0,0.881,1.000,1.000,-90.00,180.00,-22.50,CLOSED,0
671292.094,0,0,0,0.600,1.000,1.000,-90.00,180.00,-22.50,CLOSED,0
671292.099,0,0,0,0.496,1.000,1.000,-90.00,180.00,-22.50,CLOSED,0
671292.103,0,0,0,0.629,1.000,1.000,-90.00,180.00,-22.50,CLOSED,0
671292.108,0,0,0,0.832,1.000,1.000,-90.00,180.00,-22.50,CLOSED,0
671292.112,0,0,0,0.889,1.000,1.000,-90.00,180.00,-22.50,CLOSED,0
671292.116,0,0,0,0.903,1.000,1.000,-90.00,180.00,-22.50,CLOSED,0
671292.120,0,0,0,0.939,1.000,1.000,-90.00,180.00,-22.50,CLOSED,0
671292.124,0,0,0,0.955,1.000,1.000,-90.00,180.00,-22.50,CLOSED,0
671292.129,0,0,0,0.949,1.000,1.000,-90.00,180.00,-22.50,CLOSED,0
671292.133,2,0,0,0.898,1.000,1.000,-90.00,180.00,-27.00,CLOSED,1
671292.137,2,0,0,0.730,1.000,1.000,-90.00,180.00,-27.00,CLOSED,0
671292.144,2,0,0,0.525,1.000,1.000,-90.00,180.00,-27.00,CLOSED,0
671292.149,2,0,0,0.780,1.000,1.000,-90.00,180.00,-27.00,CLOSED,0
671292.154,2,0,0,0.922,1.000,1.000,-90.00,180.00,-27.00,CLOSED,0
671292.160,2,0,0,0.972,1.000,1.000,-90.00,180.00,-27.00,CLOSED,0
671292.166,2,0,0,0.987,1.000,1.000,-90.00,180.00,-27.00,CLOSED,0
671292.171,2,0,0,0.993,1.000,1.000,-90.00,180.00,-27.00,CLOSED,0
671292.176,2,0,0,0.996,1.000,1.000,-90.00,180.00,-27.00,CLOSED,0
671292.181,2,0,0,0.997,1.000,1.000,-90.00,180.00,-27.00,CLOSED,0
671292.185,0,0,0,0.998,1.000,1.000,-90.00,180.00,-27.00,CLOSED,0
671292.190,0,0,0,0.998,1.000,1.000,-90.00,180.00,-27.00,CLOSED,0
671292.194,0,0,0,0.998,1.000,1.000,-90.00,180.00,-27.00,CLOSED,0
671292.198,0,0,0,0.998,1.000,1.000,-90.00,180.00,-27.00,CLOSED,0
671292.202,0,0,0,1.000,1.000,1.000,-90.00,180.00,-27.00,CLOSED,0
671292.207,0,0,0,1.000,1.000,1.000,-90.00,180.00,-27.00,CLOSED,0
671292.211,0,0,0,1.000,1.000,1.000,-90.00,180.00,-27.00,CLOSED,0
671292.215,0,0,0,1.000,1.000,1.000,-90.00,180.00,-27.00,CLOSED,0
671292.220,0,0,0,1.000,1.000,1.000,-90.00,180.00,-27.00,CLOSED,0
671292.224,0,0,0,1.000,1.000,1.000,-90.00,180.00,-27.00,CLOSED,0
671292.228,0,0,0,1.000,1.000,1.000,-90.00,180.00,-27.00,CLOSED,0
671292.232,0,0,0,1.000,1.000,1.000,-90.00,180.00,-27.00,CLOSED,0
671292.237,0,0,0,1.000,1.000,1.000,-90.00,180.00,-27.00,CLOSED,0
671292.243,0,0,0,1.000,1.000,1.000,-90.00,180.00,-27.00,CLOSED,0
671292.249,0,0,0,1.000,1.000,1.000,-90.00,180.00,-27.00,CLOSED,0
671292.256,0,0,0,1.000,1.000,1.000,-90.00,180.00,-27.00,CLOSED,0
671292.262,0,0,0,1.000,1.000,1.000,-90.00,180.00,-27.00,CLOSED,0
671292.268,0,0,0,1.000,1.000,1.000,-90.00,180.00,-27.00,CLOSED,0
671292.273,0,0,0,1.000,1.000,1.000,-90.00,180.00,-27.00,CLOSED,0
671292.278,0,0,0,1.000,1.000,1.000,-90.00,180.00,-27.00,CLOSED,0
671292.282,0,0,0,1.000,1.000,1.000,-90.00,180.00,-27.00,CLOSED,0
671292.287,0,0,0,1.000,1.000,1.000,-90.00,180.00,-27.00,CLOSED,0
671292.291,0,0,0,1.000,1.000,1.000,-90.00,180.00,-27.00,CLOSED,0
671292.296,0,0,0,1.000,1.000,1.000,-90.00,180.00,-27.00,CLOSED,0
671292.301,0,0,0,1.000,1.000,1.000,-90.00,180.00,-27.00,CLOSED,0
671292.305,0,0,0,1.000,1.000,1.000,-90.00,180.00,-27.00,CLOSED,0
671292.309,0,0,0,1.000,1.000,1.000,-90.00,180.00,-27.00,CLOSED,0
671292.313,0,0,0,1.000,1.000,1.000,-90.00,180.00,-27.00,CLOSED,0
671292.317,0,0,0,1.000,1.000,1.000,-90.00,180.00,-27.00,CLOSED,0
671292.321,0,0,0,1.000,1.000,1.000,-90.00,180.00,-27.00,CLOSED,0
671292.325,0,0,0,1.000,1.000,1.000,-90.00,180.00,-27.00,CLOSED,0
671292.330,0,0,0,1.000,1.000,1.000,-90.00,180.00,-27.00,CLOSED,0
671292.334,0,0,0,1.000,1.000,1.000,-90.00,180.00,-27.00,CLOSED,0
671292.338,0,0,0,1.000,1.000,1.000,-90.00,180.00,-27.00,CLOSED,0
671292.343,0,0,0,1.000,1.000,1.000,-90.00,180.00,-27.00,CLOSED,0
671292.347,0,0,0,1.000,1.000,1.000,-90.00,180.00,-27.00,CLOSED,0
671292.352,0,0,0,1.000,1.000,1.000,-90.00,180.00,-27.00,CLOSED,0
671292.357,0,0,0,1.000,1.000,1.000,-90.00,180.00,-27.00,CLOSED,0
671292.362,0,0,0,1.000,1.000,1.000,-90.00,180.00,-27.00,CLOSED,0
671292.367,0,0,0,1.000,1.000,1.000,-90.00,180.00,-27.00,CLOSED,0
671292.373,0,0,0,1.000,1.000,1.000,-90.00,180.00,-27.00,CLOSED,0
671292.378,0,0,0,1.000,1.000,1.000,-90.00,180.00,-27.00,CLOSED,0
671292.384,0,0,0,1.000,1.000,1.000,-90.00,180.00,-27.00,CLOSED,0
671292.389,0,0,0,1.000,1.000,1.000,-90.00,180.00,-27.00,CLOSED,0
671292.394,0,0,0,1.000,1.000,1.000,-90.00,180.00,-27.00,CLOSED,0
671292.399,0,0,0,1.000,1.000,1.000,-90.00,180.00,-27.00,CLOSED,0
671292.404,0,0,0,1.000,1.000,1.000,-90.00,180.00,-27.00,CLOSED,0
671292.409,0,0,0,1.000,1.000,1.000,-90.00,180.00,-27.00,CLOSED,0
671292.413,0,0,0,1.000,1.000,1.000,-90.00,180.00,-27.00,CLOSED,0
671292.417,0,0,0,1.000,1.000,1.000,-90.00,180.00,-27.00,CLOSED,0
671292.422,0,0,0,1.000,1.000,1.000,-90.00,180.00,-27.00,CLOSED,0
671292.426,0,0,0,1.000,1.000,1.000,-90.00,180.00,-27.00,CLOSED,0
671292.430,0,0,0,1.000,1.000,1.000,-90.00,180.00,-27.00,CLOSED,0
671292.435,0,0,0,1.000,1.000,1.000,-90.00,180.00,-27.00,CLOSED,0
671292.440,0,0,0,1.000,1.000,1.000,-90.00,180.00,-27.00,CLOSED,0
671292.444,0,0,0,1.000,1.000,1.000,-90.00,180.00,-27.00,CLOSED,0
671292.449,0,0,0,1.000,1.000,1.000,-90.00,180.00,-27.00,CLOSED,0
671292.453,0,0,0,1.000,1.000,1.000,-90.00,180.00,-27.00,CLOSED,0
671292.457,0,0,0,1.000,1.000,1.000,-90.00,180.00,-27.00,CLOSED,0
671292.461,0,0,0,1.000,1.000,1.000,-90.00,180.00,-27.00,CLOSED,0
671292.465,0,0,0,1.000,1.000,1.000,-90.00,180.00,-27.00,CLOSED,0
671292.469,0,0,0,1.000,1.000,1.000,-90.00,180.00,-27.00,CLOSED,0
671292.473,0,0,0,1.000,1.000,1.000,-90.00,180.00,-27.00,CLOSED,0
671292.478,0,0,0,1.000,1.000,1.000,-90.00,180.00,-27.00,CLOSED,0
671292.483,0,0,0,1.000,1.000,1.000,-90.00,180.00,-27.00,CLOSED,0
671292.489,0,0,0,1.000,1.000,1.000,-90.00,180.00,-27.00,CLOSED,0
671292.496,0,0,0,1.000,1.000,1.000,-90.00,180.00,-27.00,CLOSED,0
671292.503,0,0,0,1.000,1.000,1.000,-90.00,180.00,-27.00,CLOSED,0
671292.510,0,0,0,1.000,1.000,1.000,-90.00,180.00,-27.00,CLOSED,0
671292.516,0,0,0,1.000,1.000,1.000,-90.00,180.00,-27.00,CLOSED,0
671292.521,0,0,0,1.000,1.000,1.000,-90.00,180.00,-27.00,CLOSED,0
671292.525,0,0,0,1.000,1.000,1.000,-90.00,180.00,-27.00,CLOSED,0
671292.530,0,0,0,1.000,1.000,1.000,-90.00,180.00,-27.00,CLOSED,0
671292.534,0,0,0,1.000,1.000,1.000,-90.00,180.00,-27.00,CLOSED,0
671292.539,0,0,0,1.000,1.000,1.000,-90.00,180.00,-27.00,CLOSED,0
671292.543,0,0,0,1.000,1.000,1.000,-90.00,180.00,-27.00,CLOSED,0
671292.548,0,0,0,1.000,1.000,1.000,-90.00,180.00,-27.00,CLOSED,0
671292.553,0,0,0,1.000,1.000,1.000,-90.00,180.00,-27.00,CLOSED,0
671292.558,0,0,0,1.000,1.000,1.000,-90.00,180.00,-27.00,CLOSED,0
671292.563,0,0,0,1.000,1.000,1.000,-90.00,180.00,-27.00,CLOSED,0
671292.567,0,0,0,1.000,1.000,1.000,-90.00,180.00,-27.00,CLOSED,0
671292.571,0,0,0,1.000,1.000,1.000,-90.00,180.00,-27.00,CLOSED,0
671292.575,0,0,0,1.000,1.000,1.000,-90.00,180.00,-27.00,CLOSED,0
671292.579,0,0,0,1.000,1.000,1.000,-90.00,180.00,-27.00,CLOSED,0
671292.583,0,0,0,1.000,1.000,1.000,-90.00,180.00,-27.00,CLOSED,0
671292.587,0,0,0,1.000,1.000,1.000,-90.00,180.00,-27.00,CLOSED,0
671292.591,0,0,0,1.000,1.000,1.000,-90.00,180.00,-27.00,CLOSED,0
671292.596,0,0,0,1.000,1.000,1.000,-90.00,180.00,-27.00,CLOSED,0
671292.600,0,0,0,1.000,1.000,1.000,-90.00,180.00,-27.00,CLOSED,0
671292.604,0,0,0,1.000,1.000,1.000,-90.00,180.00,-27.00,CLOSED,0
671292.608,0,0,0,1.000,1.000,1.000,-90.00,180.00,-27.00,CLOSED,0
671292.611,0,0,0,1.000,1.000,1.000,-90.00,180.00,-27.00,CLOSED,0
671292.615,0,0,0,1.000,1.000,1.000,-90.00,180.00,-27.00,CLOSED,0
671292.619,0,1,0,1.000,1.000,1.000,-90.00,179.76,-27.00,CLOSED,0
671292.624,0,1,0,1.000,0.993,1.000,-90.00,179.48,-27.00,CLOSED,1
671292.629,0,1,0,1.000,0.947,1.000,-90.00,179.19,-27.00,CLOSED,0
671292.634,0,1,0,1.000,0.842,1.000,-90.00,178.90,-27.00,CLOSED,0
671292.638,0,1,0,1.000,0.684,1.000,-90.00,178.63,-27.00,CLOSED,0
671292.642,0,1,0,1.000,0.748,1.000,-90.00,178.38,-27.00,CLOSED,0
671292.647,0,1,0,1.000,0.994,1.000,-90.00,178.11,-27.00,CLOSED,0
671292.651,0,1,0,1.000,1.000,1.000,-90.00,177.83,-27.00,CLOSED,0
671292.656,0,1,0,1.000,1.000,1.000,-90.00,177.58,-27.00,CLOSED,0
671292.660,0,1,0,1.000,1.000,1.000,-90.00,177.34,-27.00,CLOSED,0
671292.664,0,1,0,1.000,1.000,1.000,-90.00,177.11,-27.00,CLOSED,0
671292.668,0,1,0,1.000,1.000,1.000,-90.00,176.85,-27.00,CLOSED,0
671292.672,0,1,0,1.000,1.000,1.000,-90.00,176.63,-27.00,CLOSED,0
671292.675,0,1,0,1.000,1.000,1.000,-90.00,176.40,-27.00,CLOSED,0
671292.679,0,1,0,1.000,1.000,1.000,-90.00,176.17,-27.00,CLOSED,0
671292.683,0,1,0,1.000,1.000,1.000,-90.00,175.94,-27.00,CLOSED,0
671292.688,0,1,0,1.000,1.000,1.000,-90.00,175.65,-27.00,CLOSED,0
671292.692,0,1,0,1.000,1.000,1.000,-90.00,175.38,-27.00,CLOSED,0
671292.696,0,1,0,1.000,1.000,1.000,-90.00,175.14,-27.00,CLOSED,0
671292.701,0,1,0,1.000,1.000,1.000,-90.00,174.85,-27.00,CLOSED,0
671292.705,0,1,0,1.000,1.000,1.000,-90.00,174.61,-27.00,CLOSED,0
671292.710,0,1,0,1.000,1.000,1.000,-90.00,174.29,-27.00,CLOSED,0
671292.717,0,1,0,1.000,1.000,1.000,-90.00,173.89,-27.00,CLOSED,0
671292.724,0,1,0,1.000,1.000,1.000,-90.00,173.46,-27.00,CLOSED,1
671292.731,0,1,0,1.000,1.000,1.000,-90.00,173.06,-27.00,CLOSED,0
671292.738,0,1,0,1.000,1.000,1.000,-90.00,172.67,-27.00,CLOSED,0
671292.743,0,1,0,1.000,1.000,1.000,-90.00,172.33,-27.00,CLOSED,0
671292.748,0,1,0,1.000,1.000,1.000,-90.00,172.03,-27.00,CLOSED,0
671292.753,0,1,0,1.000,1.000,1.000,-90.00,171.72,-27.00,CLOSED,0
671292.758,0,1,0,1.000,1.000,1.000,-90.00,171.44,-27.00,CLOSED,0
671292.762,0,1,0,1.000,1.000,1.000,-90.00,171.18,-27.00,CLOSED,0
671292.766,0,1,0,1.000,1.000,1.000,-90.00,170.94,-27.00,CLOSED,0
671292.770,0,1,0,1.000,1.000,1.000,-90.00,170.70,-27.00,CLOSED,0
671292.774,0,1,0,1.000,1.000,1.000,-90.00,170.46,-27.00,CLOSED,0
671292.778,0,1,0,1.000,1.000,1.000,-90.00,170.23,-27.00,CLOSED,0
671292.782,0,1,0,1.000,1.000,1.000,-90.00,169.97,-27.00,CLOSED,0
671292.786,0,1,0,1.000,1.000,1.000,-90.00,169.74,-27.00,CLOSED,0
671292.792,0,1,0,1.000,1.000,1.000,-90.00,169.42,-27.00,CLOSED,0
671292.798,0,1,0,1.000,1.000,1.000,-90.00,169.02,-27.00,CLOSED,0
671292.804,0,1,0,1.000,1.000,1.000,-90.00,168.65,-27.00,CLOSED,0
671292.810,0,1,0,1.000,1.000,1.000,-90.00,168.30,-27.00,CLOSED,0
671292.815,0,1,0,1.000,1.000,1.000,-90.00,167.99,-27.00,CLOSED,0
671292.820,0,1,0,1.000,1.000,1.000,-90.00,167.71,-27.00,CLOSED,0
671292.825,0,1,0,1.000,1.000,1.000,-90.00,167.43,-27.00,CLOSED,1
671292.829,0,1,0,1.000,1.000,1.000,-90.00,167.15,-27.00,CLOSED,0
671292.834,0,1,0,1.000,1.000,1.000,-90.00,166.89,-27.00,CLOSED,0
671292.838,0,1,0,1.000,1.000,1.000,-90.00,166.62,-27.00,CLOSED,0
671292.842,0,1,0,1.000,1.000,1.000,-90.00,166.37,-27.00,CLOSED,0
671292.847,0,1,0,1.000,1.000,1.000,-90.00,166.12,-27.00,CLOSED,0
671292.851,0,1,0,1.000,1.000,1.000,-90.00,165.85,-27.00,CLOSED,0
671292.855,0,1,0,1.000,1.000,1.000,-90.00,165.62,-27.00,CLOSED,0
671292.859,0,1,0,1.000,1.000,1.000,-90.00,165.38,-27.00,CLOSED,0
671292.863,0,1,0,1.000,1.000,1.000,-90.00,165.16,-27.00,CLOSED,0
671292.867,0,1,0,1.000,1.000,1.000,-90.00,164.90,-27.00,CLOSED,0
671292.871,0,1,0,1.000,1.000,1.000,-90.00,164.67,-27.00,CLOSED,0
671292.876,0,1,0,1.000,1.000,1.000,-90.00,164.37,-27.00,CLOSED,0
671292.883,0,1,0,1.000,1.000,1.000,-90.00,163.96,-27.00,CLOSED,0
671292.891,0,1,0,1.000,1.000,1.000,-90.00,163.47,-27.00,CLOSED,0
671292.898,0,1,0,1.000,1.000,1.000,-90.00,163.06,-27.00,CLOSED,0
671292.904,0,1,0,1.000,1.000,1.000,-90.00,162.65,-27.00,CLOSED,0
671292.910,0,1,0,1.000,1.000,1.000,-90.00,162.30,-27.00,CLOSED,0
671292.916,0,1,0,1.000,1.000,1.000,-90.00,161.95,-27.00,CLOSED,0
671292.921,0,1,0,1.000,1.000,1.000,-90.00,161.64,-27.00,CLOSED,0
671292.926,0,1,0,1.000,1.000,1.000,-90.00,161.36,-27.00,CLOSED,1
671292.931,0,1,0,1.000,1.000,1.000,-90.00,161.05,-27.00,CLOSED,0
671292.936,0,1,0,1.000,1.000,1.000,-90.00,160.78,-27.00,CLOSED,0
671292.940,0,1,0,1.000,1.000,1.000,-90.00,160.52,-27.00,CLOSED,0
671292.944,0,1,0,1.000,1.000,1.000,-90.00,160.28,-27.00,CLOSED,0
671292.948,0,1,0,1.000,1.000,1.000,-90.00,160.03,-27.00,CLOSED,0
671292.952,0,1,0,1.000,1.000,1.000,-90.00,159.77,-27.00,CLOSED,0
671292.957,0,1,0,1.000,1.000,1.000,-90.00,159.52,-27.00,CLOSED,0
671292.961,0,1,0,1.000,1.000,1.000,-90.00,159.28,-27.00,CLOSED,0
671292.965,0,1,0,1.000,1.000,1.000,-90.00,159.03,-27.00,CLOSED,0
671292.970,0,1,0,1.000,1.000,1.000,-90.00,158.71,-27.00,CLOSED,0
671292.975,0,1,0,1.000,1.000,1.000,-90.00,158.42,-27.00,CLOSED,0
671292.979,0,1,0,1.000,1.000,1.000,-90.00,158.17,-27.00,CLOSED,0
671292.984,0,1,0,1.000,1.000,1.000,-90.00,157.88,-27.00,CLOSED,0
671292.988,0,1,0,1.000,1.000,1.000,-90.00,157.63,-27.00,CLOSED,0
671292.992,0,1,0,1.000,1.000,1.000,-90.00,157.38,-27.00,CLOSED,0
671292.996,0,1,0,1.000,1.000,1.000,-90.00,157.15,-27.00,CLOSED,0
671293.000,0,1,0,1.000,1.000,1.000,-90.00,156.90,-27.00,CLOSED,0
671293.005,0,1,0,1.000,1.000,1.000,-90.00,156.60,-27.00,CLOSED,0
671293.012,0,1,0,1.000,1.000,1.000,-90.00,156.17,-27.00,CLOSED,0
671293.019,0,1,0,1.000,1.000,1.000,-90.00,155.76,-27.00,CLOSED,0
671293.026,0,1,0,1.000,1.000,1.000,-90.00,155.37,-27.00,CLOSED,0
671293.032,0,1,0,1.000,1.000,1.000,-90.00,155.00,-27.00,CLOSED,1
671293.038,0,1,0,1.000,1.000,1.000,-90.00,154.67,-27.00,CLOSED,0
671293.043,0,1,0,1.000,1.000,1.000,-90.00,154.36,-27.00,CLOSED,0
671293.048,0,1,0,1.000,1.000,1.000,-90.00,154.05,-27.00,CLOSED,0
671293.053,0,1,0,1.000,1.000,1.000,-90.00,153.75,-27.00,CLOSED,0
671293.058,0,1,0,1.000,1.000,1.000,-90.00,153.46,-27.00,CLOSED,0
671293.064,0,1,0,1.000,1.000,1.000,-90.00,153.10,-27.00,CLOSED,0
671293.068,0,1,0,1.000,1.000,1.000,-90.00,152.83,-27.00,CLOSED,0
671293.073,0,1,0,1.000,1.000,1.000,-90.00,152.56,-27.00,CLOSED,0
671293.077,0,1,0,1.000,1.000,1.000,-90.00,152.29,-27.00,CLOSED,0
671293.081,0,1,0,1.000,1.000,1.000,-90.00,152.05,-27.00,CLOSED,0
671293.085,0,1,0,1.000,1.000,1.000,-90.00,151.82,-27.00,CLOSED,0
671293.089,0,1,0,1.000,1.000,1.000,-90.00,151.58,-27.00,CLOSED,0
671293.093,0,1,0,1.000,1.000,1.000,-90.00,151.34,-27.00,CLOSED,0
671293.097,0,1,0,1.000,1.000,1.000,-90.00,151.11,-27.00,CLOSED,0
671293.102,0,1,0,1.000,1.000,1.000,-90.00,150.80,-27.00,CLOSED,0
671293.108,0,1,0,1.000,1.000,1.000,-90.00,150.43,-27.00,CLOSED,0
671293.114,0,1,0,1.000,1.000,1.000,-90.00,150.09,-27.00,CLOSED,0
671293.119,0,1,0,1.000,1.000,1.000,-90.00,149.76,-27.00,CLOSED,0
671293.125,0,1,0,1.000,1.000,1.000,-90.00,149.41,-27.00,CLOSED,0
671293.131,0,1,0,1.000,1.000,1.000,-90.00,149.07,-27.00,CLOSED,0
671293.136,0,1,0,1.000,1.000,1.000,-90.00,148.74,-27.00,CLOSED,1
671293.142,0,1,0,1.000,1.000,1.000,-90.00,148.41,-27.00,CLOSED,0
671293.147,0,1,0,1.000,1.000,1.000,-90.00,148.10,-27.00,CLOSED,0
671293.152,0,1,0,1.000,1.000,1.000,-90.00,147.79,-27.00,CLOSED,0
671293.157,0,1,0,1.000,1.000,1.000,-90.00,147.51,-27.00,CLOSED,0
671293.161,0,1,0,1.000,1.000,1.000,-90.00,147.23,-27.00,CLOSED,0
671293.166,0,1,0,1.000,1.000,1.000,-90.00,146.97,-27.00,CLOSED,0
671293.170,0,1,0,1.000,1.000,1.000,-90.00,146.70,-27.00,CLOSED,0
671293.175,0,1,0,1.000,1.000,1.000,-90.00,146.44,-27.00,CLOSED,0
671293.179,0,0,0,1.000,1.000,1.000,-90.00,146.70,-27.00,CLOSED,0
671293.183,0,0,0,1.000,1.000,1.000,-90.00,146.94,-27.00,CLOSED,0
671293.187,0,0,0,1.000,1.000,1.000,-90.00,147.19,-27.00,CLOSED,0
671293.192,0,0,0,1.000,1.000,1.000,-90.00,147.48,-27.00,CLOSED,0
671293.197,0,0,0,1.000,1.000,1.000,-90.00,147.76,-27.00,CLOSED,0
671293.202,0,0,0,1.000,1.000,1.000,-90.00,148.05,-27.00,CLOSED,0
671293.207,0,0,0,1.000,1.000,1.000,-90.00,148.36,-27.00,CLOSED,0
671293.211,0,0,0,1.000,1.000,1.000,-90.00,148.64,-27.00,CLOSED,0
671293.216,0,0,0,1.000,1.000,1.000,-90.00,148.92,-27.00,CLOSED,0
671293.220,0,0,0,1.000,1.000,1.000,-90.00,149.18,-27.00,CLOSED,0
671293.224,0,0,0,1.000,1.000,1.000,-90.00,149.43,-27.00,CLOSED,0
671293.229,0,0,0,1.000,1.000,1.000,-90.00,149.67,-27.00,CLOSED,0
671293.233,0,0,0,1.000,1.000,1.000,-90.00,149.91,-27.00,CLOSED,0
671293.237,0,0,0,1.000,1.000,1.000,-90.00,150.15,-27.00,CLOSED,1
671293.241,0,0,0,1.000,1.000,1.000,-90.00,150.41,-27.00,CLOSED,0
671293.246,0,0,0,1.000,1.000,1.000,-90.00,150.72,-27.00,CLOSED,0
671293.250,0,0,0,1.000,1.000,1.000,-90.00,150.97,-27.00,CLOSED,0
671293.254,0,0,0,1.000,1.000,1.000,-90.00,151.22,-27.00,CLOSED,0
671293.258,0,0,0,1.000,1.000,1.000,-90.00,151.45,-27.00,CLOSED,0
671293.262,0,0,0,1.000,1.000,1.000,-90.00,151.69,-27.00,CLOSED,0
671293.266,0,0,0,1.000,1.000,1.000,-90.00,151.93,-27.00,CLOSED,0
671293.270,0,0,0,1.000,1.000,1.000,-90.00,152.16,-27.00,CLOSED,0
671293.274,0,0,0,1.000,1.000,1.000,-90.00,152.40,-27.00,CLOSED,0
671293.278,0,0,0,1.000,1.000,1.000,-90.00,152.65,-27.00,CLOSED,0
671293.282,0,0,0,1.000,1.000,1.000,-90.00,152.91,-27.00,CLOSED,0
671293.286,0,0,0,1.000,1.000,1.000,-90.00,153.14,-27.00,CLOSED,0
671293.291,0,0,0,1.000,1.000,1.000,-90.00,153.40,-27.00,CLOSED,0
671293.296,0,0,0,1.000,1.000,1.000,-90.00,153.71,-27.00,CLOSED,0
671293.300,0,0,0,1.000,1.000,1.000,-90.00,153.99,-27.00,CLOSED,0
671293.305,0,0,0,1.000,1.000,1.000,-90.00,154.23,-27.00,CLOSED,0
671293.309,0,0,0,1.000,1.000,1.000,-90.00,154.47,-27.00,CLOSED,0
671293.313,0,0,0,1.000,1.000,1.000,-90.00,154.71,-27.00,CLOSED,0
671293.317,0,0,0,1.000,1.000,1.000,-90.00,154.97,-27.00,CLOSED,0
671293.321,0,0,0,1.000,1.000,1.000,-90.00,155.20,-27.00,CLOSED,0
671293.324,0,0,0,1.000,1.000,1.000,-90.00,155.42,-27.00,CLOSED,0
671293.329,0,0,0,1.000,1.000,1.000,-90.00,155.67,-27.00,CLOSED,0
671293.333,0,0,0,1.000,1.000,1.000,-90.00,155.92,-27.00,CLOSED,0
671293.337,0,0,0,1.000,1.000,1.000,-90.00,156.20,-27.00,CLOSED,1
671293.342,0,0,0,1.000,1.000,1.000,-90.00,156.46,-27.00,CLOSED,0
671293.346,0,0,0,1.000,1.000,1.000,-90.00,156.70,-27.00,CLOSED,0
671293.351,0,0,0,1.000,1.000,0.999,-90.00,157.00,-27.00,CLOSED,0
671293.355,0,0,0,0.999,1.000,0.990,-90.00,157.24,-27.00,CLOSED,0
671293.359,0,0,0,0.999,1.000,0.947,-90.00,157.49,-27.00,CLOSED,0
671293.363,0,0,0,1.000,0.997,0.840,-90.00,157.75,-27.00,CLOSED,0
671293.369,0,0,0,1.000,0.948,0.678,-90.00,158.09,-27.00,CLOSED,0
671293.373,0,0,0,1.000,0.754,0.528,-90.00,158.34,-27.00,CLOSED,0
671293.377,0,0,0,1.000,0.996,0.731,-90.00,158.60,-27.00,CLOSED,0
671293.382,0,0,0,0.999,1.000,0.896,-90.00,158.87,-27.00,CLOSED,0
671293.387,0,0,0,0.992,1.000,0.980,-90.00,159.19,-27.00,CLOSED,0
671293.392,0,0,0,0.981,1.000,0.996,-90.00,159.45,-27.00,CLOSED,0
671293.396,0,0,0,0.999,1.000,0.999,-90.00,159.69,-27.00,CLOSED,0
671293.401,0,0,0,1.000,1.000,1.000,-90.00,160.01,-27.00,CLOSED,0
671293.405,0,0,0,1.000,1.000,1.000,-90.00,160.27,-27.00,CLOSED,0
671293.409,0,0,0,1.000,1.000,1.000,-90.00,160.52,-27.00,CLOSED,0
671293.414,0,0,0,1.000,1.000,1.000,-90.00,160.77,-27.00,CLOSED,0
671293.418,0,0,0,1.000,1.000,1.000,-90.00,161.01,-27.00,CLOSED,0
671293.422,0,0,0,1.000,1.000,1.000,-90.00,161.27,-27.00,CLOSED,0
671293.427,0,0,0,1.000,1.000,1.000,-90.00,161.55,-27.00,CLOSED,0
671293.431,0,0,0,1.000,1.000,1.000,-90.00,161.83,-27.00,CLOSED,0
671293.437,0,0,0,1.000,1.000,1.000,-90.00,162.15,-27.00,CLOSED,0
671293.441,0,0,0,0.999,1.000,1.000,-90.00,162.44,-27.00,CLOSED,1
671293.446,0,0,0,0.995,1.000,1.000,-90.00,162.71,-27.00,CLOSED,0
671293.450,0,0,0,0.990,1.000,1.000,-90.00,162.98,-27.00,CLOSED,0
671293.455,0,0,0,1.000,0.969,1.000,-90.00,163.23,-27.00,CLOSED,0
671293.459,0,0,0,1.000,0.991,1.000,-90.00,163.49,-27.00,CLOSED,0
671293.464,0,0,0,1.000,1.000,1.000,-90.00,163.79,-27.00,CLOSED,0
671293.468,0,0,0,1.000,1.000,1.000,-90.00,164.06,-27.00,CLOSED,0
671293.473,0,0,0,1.000,1.000,1.000,-90.00,164.34,-27.00,CLOSED,0
671293.477,0,0,0,1.000,1.000,1.000,-90.00,164.60,-27.00,CLOSED,0
671293.481,0,0,0,1.000,1.000,1.000,-90.00,164.84,-27.00,CLOSED,0
671293.485,0,0,0,1.000,1.000,1.000,-90.00,165.09,-27.00,CLOSED,0
671293.489,0,0,0,1.000,1.000,1.000,-90.00,165.32,-27.00,CLOSED,0
671293.493,0,0,0,1.000,1.000,1.000,-90.00,165.55,-27.00,CLOSED,0
671293.497,0,0,0,1.000,1.000,1.000,-90.00,165.80,-27.00,CLOSED,0
671293.502,0,0,0,1.000,1.000,1.000,-90.00,166.06,-27.00,CLOSED,0
671293.506,0,0,0,1.000,1.000,1.000,-90.00,166.31,-27.00,CLOSED,0
671293.510,0,0,0,1.000,1.000,1.000,-90.00,166.58,-27.00,CLOSED,0
671293.515,0,0,0,1.000,1.000,1.000,-90.00,166.84,-27.00,CLOSED,0
671293.519,0,0,0,1.000,1.000,1.000,-90.00,167.10,-27.00,CLOSED,0
671293.524,0,0,0,1.000,1.000,1.000,-90.00,167.37,-27.00,CLOSED,0
671293.528,0,0,0,1.000,1.000,1.000,-90.00,167.65,-27.00,CLOSED,0
671293.532,0,0,0,1.000,1.000,1.000,-90.00,167.89,-27.00,CLOSED,0
671293.536,0,0,0,1.000,1.000,1.000,-90.00,168.14,-27.00,CLOSED,0
671293.541,0,0,0,1.000,0.999,1.000,-90.00,168.43,-27.00,CLOSED,0
671293.546,0,0,0,1.000,0.997,1.000,-90.00,168.74,-27.00,CLOSED,1
671293.552,0,0,0,1.000,0.996,1.000,-90.00,169.07,-27.00,CLOSED,0
671293.556,0,0,0,1.000,0.998,1.000,-90.00,169.32,-27.00,CLOSED,0
671293.560,0,0,0,1.000,0.999,1.000,-90.00,169.56,-27.00,CLOSED,0
671293.564,0,0,0,1.000,1.000,1.000,-90.00,169.80,-27.00,CLOSED,0
671293.568,0,0,0,1.000,1.000,1.000,-90.00,170.04,-27.00,CLOSED,0
671293.572,0,0,0,1.000,1.000,1.000,-90.00,170.27,-27.00,CLOSED,0
671293.576,0,0,0,1.000,1.000,1.000,-90.00,170.49,-27.00,CLOSED,0
671293.580,0,0,0,1.000,1.000,1.000,-90.00,170.74,-27.00,CLOSED,0
671293.585,0,0,0,1.000,1.000,1.000,-90.00,171.08,-27.00,CLOSED,0
671293.591,0,0,0,1.000,1.000,1.000,-90.00,171.43,-27.00,CLOSED,0
671293.597,0,0,0,1.000,1.000,1.000,-90.00,171.77,-27.00,CLOSED,0
671293.603,0,0,0,1.000,1.000,1.000,-90.00,172.13,-27.00,CLOSED,0
671293.608,0,0,0,1.000,1.000,1.000,-90.00,172.43,-27.00,CLOSED,0
671293.613,0,0,0,1.000,1.000,1.000,-90.00,172.71,-27.00,CLOSED,0
671293.618,0,0,0,1.000,1.000,1.000,-90.00,173.01,-27.00,CLOSED,0
671293.622,0,0,0,1.000,1.000,1.000,-90.00,173.29,-27.00,CLOSED,0
671293.626,0,0,0,1.000,1.000,1.000,-90.00,173.54,-27.00,CLOSED,0
671293.630,0,0,0,1.000,1.000,1.000,-90.00,173.78,-27.00,CLOSED,0
671293.635,0,0,0,1.000,1.000,1.000,-90.00,174.04,-27.00,CLOSED,0
671293.639,0,0,0,1.000,1.000,1.000,-90.00,174.27,-27.00,CLOSED,0
671293.642,0,0,0,1.000,1.000,1.000,-90.00,174.50,-27.00,CLOSED,0
671293.646,0,0,0,1.000,1.000,1.000,-90.00,174.74,-27.00,CLOSED,0
671293.651,0,0,0,1.000,1.000,1.000,-90.00,175.03,-27.00,CLOSED,1
671293.655,0,0,0,1.000,1.000,1.000,-90.00,175.28,-27.00,CLOSED,0
671293.660,0,0,0,1.000,1.000,1.000,-90.00,175.55,-27.00,CLOSED,0
671293.665,0,0,0,1.000,1.000,1.000,-90.00,175.88,-27.00,CLOSED,0
671293.671,0,0,0,1.000,1.000,1.000,-90.00,176.19,-27.00,CLOSED,0
671293.676,0,0,0,1.000,1.000,1.000,-90.00,176.50,-27.00,CLOSED,0
671293.681,0,0,0,1.000,1.000,1.000,-90.00,176.82,-27.00,CLOSED,0
671293.686,0,0,0,1.000,1.000,1.000,-90.00,177.12,-27.00,CLOSED,0
671293.691,0,0,0,1.000,1.000,1.000,-90.00,177.40,-27.00,CLOSED,0
671293.695,0,0,0,1.000,1.000,1.000,-90.00,177.66,-27.00,CLOSED,0
671293.700,0,0,0,1.000,1.000,1.000,-90.00,177.95,-27.00,CLOSED,0
671293.704,0,0,0,1.000,1.000,1.000,-90.00,178.21,-27.00,CLOSED,0
671293.709,0,0,0,1.000,1.000,1.000,-90.00,178.47,-27.00,CLOSED,0
671293.713,0,0,0,1.000,1.000,1.000,-90.00,178.76,-27.00,CLOSED,0
671293.718,0,0,0,1.000,1.000,1.000,-90.00,179.06,-27.00,CLOSED,0
671293.723,0,0,0,1.000,1.000,1.000,-90.00,179.32,-27.00,CLOSED,0
671293.727,0,0,0,1.000,1.000,1.000,-90.00,179.58,-27.00,CLOSED,0
671293.731,0,0,0,1.000,1.000,1.000,-90.00,179.83,-27.00,CLOSED,0
671293.736,0,0,0,1.000,1.000,1.000,-90.00,180.00,-27.00,CLOSED,0
671293.741,0,0,0,1.000,1.000,1.000,-90.00,180.00,-27.00,CLOSED,0
671293.745,0,0,0,1.000,1.000,1.000,-90.00,180.00,-27.00,CLOSED,0
671293.750,0,0,0,1.000,1.000,1.000,-90.00,180.00,-27.00,CLOSED,0
671293.754,0,0,0,1.000,1.000,1.000,-90.00,180.00,-27.00,CLOSED,1
671293.759,0,0,0,1.000,1.000,1.000,-90.00,180.00,-27.00,CLOSED,0
671293.763,0,0,0,1.000,1.000,1.000,-90.00,180.00,-27.00,CLOSED,0
671293.768,0,0,0,1.000,1.000,1.000,-90.00,180.00,-27.00,CLOSED,0
671293.772,0,0,0,1.000,1.000,1.000,-90.00,180.00,-27.00,CLOSED,0
671293.777,0,0,0,1.000,1.000,1.000,-90.00,180.00,-27.00,CLOSED,0
671293.781,0,0,0,1.000,1.000,1.000,-90.00,180.00,-27.00,CLOSED,0
671293.785,0,0,0,1.000,1.000,1.000,-90.00,180.00,-27.00,CLOSED,0
671293.790,0,0,0,1.000,1.000,1.000,-90.00,180.00,-27.00,CLOSED,0
671293.794,0,0,0,1.000,1.000,1.000,-90.00,180.00,-27.00,CLOSED,0
671293.798,0,0,0,1.000,1.000,1.000,-90.00,180.00,-27.00,CLOSED,0
671293.802,0,0,0,1.000,1.000,1.000,-90.00,180.00,-27.00,CLOSED,0
671293.807,0,0,0,1.000,1.000,1.000,-90.00,180.00,-27.00,CLOSED,0
671293.812,0,0,0,1.000,1.000,1.000,-90.00,180.00,-27.00,CLOSED,0
671293.817,0,0,0,1.000,1.000,1.000,-90.00,180.00,-27.00,CLOSED,0
671293.822,0,0,0,1.000,1.000,1.000,-90.00,180.00,-27.00,CLOSED,0
671293.826,0,0,0,1.000,1.000,1.000,-90.00,180.00,-27.00,CLOSED,0
671293.831,0,0,0,1.000,1.000,1.000,-90.00,180.00,-27.00,CLOSED,0
671293.835,0,0,0,1.000,1.000,1.000,-90.00,180.00,-27.00,CLOSED,0
671293.839,0,0,0,1.000,1.000,1.000,-90.00,180.00,-27.00,CLOSED,0
671293.844,0,0,0,1.000,1.000,1.000,-90.00,180.00,-27.00,CLOSED,0
671293.848,0,0,0,1.000,1.000,1.000,-90.00,180.00,-27.00,CLOSED,0
671293.852,0,0,0,1.000,1.000,1.000,-90.00,180.00,-27.00,CLOSED,0
671293.856,0,0,0,1.000,1.000,1.000,-90.00,180.00,-27.00,CLOSED,0
671293.860,0,0,0,1.000,1.000,1.000,-90.00,180.00,-27.00,CLOSED,0
671293.863,0,0,0,1.000,0.999,1.000,-90.00,180.00,-27.00,CLOSED,0
671293.867,0,0,0,1.000,0.995,1.000,-90.00,180.00,-27.00,CLOSED,0
671293.872,0,0,0,1.000,0.752,1.000,-90.00,180.00,-27.00,CLOSED,0
671293.876,0,0,0,1.000,1.000,1.000,-90.00,180.00,-27.00,CLOSED,0
671293.879,0,0,0,1.000,1.000,1.000,-90.00,180.00,-27.00,CLOSED,0
671293.883,0,0,0,0.998,1.000,1.000,-90.00,180.00,-27.00,CLOSED,0
671293.888,0,0,0,0.993,1.000,1.000,-90.00,180.00,-27.00,CLOSED,0
671293.893,0,0,0,0.993,1.000,1.000,-90.00,180.00,-27.00,CLOSED,0
671293.897,0,0,0,0.988,1.000,1.000,-90.00,180.00,-27.00,CLOSED,0
671293.903,0,0,0,0.978,1.000,1.000,-90.00,180.00,-27.00,CLOSED,0
671293.907,0,0,0,0.966,1.000,1.000,-90.00,180.00,-27.00,CLOSED,0
671293.912,0,0,1,0.957,1.000,1.000,-89.72,180.00,-27.00,CLOSED,0
671293.916,0,0,1,0.943,1.000,0.999,-89.43,180.00,-27.00,CLOSED,1
671293.921,0,0,1,0.899,1.000,0.996,-89.17,180.00,-27.00,CLOSED,0
671293.925,0,0,1,0.800,1.000,0.937,-88.91,180.00,-27.00,CLOSED,0
671293.929,0,0,1,0.792,1.000,0.895,-88.66,180.00,-27.00,CLOSED,0
671293.934,0,0,1,0.995,1.000,0.698,-88.40,180.00,-27.00,CLOSED,0
671293.938,0,0,1,1.000,1.000,0.554,-88.15,180.00,-27.00,CLOSED,0
671293.942,0,0,1,1.000,1.000,0.947,-87.91,180.00,-27.00,CLOSED,0
671293.946,0,0,1,1.000,1.000,0.993,-87.65,180.00,-27.00,CLOSED,0
671293.950,0,0,1,1.000,1.000,1.000,-87.42,180.00,-27.00,CLOSED,0
671293.954,0,0,1,1.000,1.000,1.000,-87.17,180.00,-27.00,CLOSED,0
671293.959,0,0,1,1.000,1.000,1.000,-86.90,180.00,-27.00,CLOSED,0
671293.963,0,0,1,1.000,1.000,1.000,-86.64,180.00,-27.00,CLOSED,0
671293.968,0,0,1,1.000,1.000,1.000,-86.36,180.00,-27.00,CLOSED,0
671293.972,0,0,1,1.000,0.999,1.000,-86.12,180.00,-27.00,CLOSED,0
671293.976,0,0,1,1.000,0.993,1.000,-85.88,180.00,-27.00,CLOSED,0
671293.980,0,0,1,1.000,0.939,1.000,-85.63,180.00,-27.00,CLOSED,0
671293.984,0,0,1,0.996,0.544,1.000,-85.37,180.00,-27.00,CLOSED,0
671293.989,0,0,1,0.997,0.868,1.000,-85.10,180.00,-27.00,CLOSED,0
671293.993,0,0,1,1.000,0.805,1.000,-84.81,180.00,-27.00,CLOSED,0
671293.998,0,0,1,1.000,0.776,1.000,-84.56,180.00,-27.00,CLOSED,0
671294.002,0,0,1,1.000,0.828,1.000,-84.29,180.00,-27.00,CLOSED,0
671294.006,0,0,1,1.000,0.966,1.000,-84.04,180.00,-27.00,CLOSED,0
671294.011,0,0,1,1.000,0.990,1.000,-83.78,180.00,-27.00,CLOSED,0
671294.015,0,0,1,1.000,0.997,1.000,-83.49,180.00,-27.00,CLOSED,0
671294.020,0,0,1,1.000,0.999,1.000,-83.20,180.00,-27.00,CLOSED,1
671294.026,0,0,1,1.000,1.000,1.000,-82.89,180.00,-27.00,CLOSED,0
671294.031,0,0,1,1.000,1.000,1.000,-82.58,180.00,-27.00,CLOSED,0
671294.035,0,0,1,1.000,1.000,1.000,-82.30,180.00,-27.00,CLOSED,0
671294.040,0,0,1,1.000,1.000,1.000,-82.03,180.00,-27.00,CLOSED,0
671294.044,0,0,1,1.000,1.000,1.000,-81.76,180.00,-27.00,CLOSED,0
671294.048,0,0,1,1.000,1.000,1.000,-81.52,180.00,-27.00,CLOSED,0
671294.053,0,0,1,1.000,1.000,1.000,-81.25,180.00,-27.00,CLOSED,0
671294.057,0,0,1,1.000,1.000,1.000,-81.01,180.00,-27.00,CLOSED,0
671294.061,0,0,1,1.000,1.000,1.000,-80.77,180.00,-27.00,CLOSED,0
671294.065,0,0,1,1.000,1.000,1.000,-80.51,180.00,-27.00,CLOSED,0
671294.070,0,0,1,1.000,1.000,1.000,-80.22,180.00,-27.00,CLOSED,0
671294.074,0,0,1,1.000,1.000,1.000,-79.98,180.00,-27.00,CLOSED,0
671294.078,0,0,1,1.000,1.000,1.000,-79.73,180.00,-27.00,CLOSED,0
671294.082,0,0,1,1.000,1.000,1.000,-79.47,180.00,-27.00,CLOSED,0
671294.087,0,0,1,1.000,1.000,1.000,-79.19,180.00,-27.00,CLOSED,0
671294.092,0,0,1,1.000,1.000,1.000,-78.88,180.00,-27.00,CLOSED,0
671294.097,0,0,1,1.000,1.000,1.000,-78.58,180.00,-27.00,CLOSED,0
671294.102,0,0,1,1.000,1.000,1.000,-78.27,180.00,-27.00,CLOSED,0
671294.107,0,0,1,1.000,1.000,1.000,-78.00,180.00,-27.00,CLOSED,0
671294.111,0,0,1,1.000,1.000,1.000,-77.74,180.00,-27.00,CLOSED,0
671294.116,0,0,1,1.000,1.000,1.000,-77.49,180.00,-27.00,CLOSED,0
671294.120,0,0,1,1.000,1.000,1.000,-77.22,180.00,-27.00,CLOSED,0
671294.124,0,0,1,1.000,1.000,1.000,-76.96,180.00,-27.00,CLOSED,1
671294.129,0,0,1,1.000,1.000,1.000,-76.70,180.00,-27.00,CLOSED,0
671294.133,0,0,1,1.000,1.000,1.000,-76.42,180.00,-27.00,CLOSED,0
671294.138,0,0,1,1.000,1.000,1.000,-76.17,180.00,-27.00,CLOSED,0
671294.142,0,0,1,1.000,1.000,1.000,-75.91,180.00,-27.00,CLOSED,0
671294.146,0,0,1,1.000,1.000,1.000,-75.66,180.00,-27.00,CLOSED,0
671294.150,0,0,1,1.000,1.000,1.000,-75.40,180.00,-27.00,CLOSED,0
671294.154,0,0,1,1.000,1.000,1.000,-75.15,180.00,-27.00,CLOSED,0
671294.159,0,0,1,1.000,1.000,1.000,-74.90,180.00,-27.00,CLOSED,0
671294.163,0,0,1,1.000,1.000,1.000,-74.65,180.00,-27.00,CLOSED,0
671294.168,0,0,1,1.000,1.000,1.000,-74.36,180.00,-27.00,CLOSED,0
671294.172,0,0,1,1.000,1.000,1.000,-74.11,180.00,-27.00,CLOSED,0
671294.176,0,0,1,1.000,1.000,1.000,-73.84,180.00,-27.00,CLOSED,0
671294.181,0,0,1,1.000,1.000,1.000,-73.58,180.00,-27.00,CLOSED,0
671294.185,0,0,1,1.000,1.000,1.000,-73.31,180.00,-27.00,CLOSED,0
671294.190,0,0,1,1.000,1.000,1.000,-73.00,180.00,-27.00,CLOSED,0
671294.196,0,0,1,1.000,1.000,1.000,-72.65,180.00,-27.00,CLOSED,0
671294.202,0,0,1,1.000,1.000,1.000,-72.31,180.00,-27.00,CLOSED,0
671294.207,0,0,1,1.000,1.000,1.000,-71.98,180.00,-27.00,CLOSED,0
671294.213,0,0,1,1.000,1.000,1.000,-71.66,180.00,-27.00,CLOSED,0
671294.218,0,0,1,1.000,1.000,1.000,-71.37,180.00,-27.00,CLOSED,0
671294.222,0,0,1,1.000,1.000,1.000,-71.08,180.00,-27.00,CLOSED,0
671294.227,0,0,1,1.000,1.000,1.000,-70.79,180.00,-27.00,CLOSED,1
671294.232,0,0,1,1.000,1.000,1.000,-70.51,180.00,-27.00,CLOSED,0
671294.236,0,0,1,1.000,1.000,1.000,-70.25,180.00,-27.00,CLOSED,0
671294.241,0,0,1,1.000,1.000,1.000,-69.99,180.00,-27.00,CLOSED,0
671294.245,0,0,1,1.000,1.000,1.000,-69.73,180.00,-27.00,CLOSED,0
671294.249,0,0,1,1.000,1.000,1.000,-69.48,180.00,-27.00,CLOSED,0
671294.253,0,0,1,1.000,1.000,1.000,-69.23,180.00,-27.00,CLOSED,0
671294.257,0,0,1,1.000,1.000,1.000,-68.99,180.00,-27.00,CLOSED,0
671294.261,0,0,1,1.000,1.000,1.000,-68.75,180.00,-27.00,CLOSED,0
671294.265,0,0,1,1.000,1.000,1.000,-68.53,180.00,-27.00,CLOSED,0
671294.269,0,0,1,1.000,1.000,1.000,-68.29,180.00,-27.00,CLOSED,0
671294.273,0,0,1,1.000,1.000,1.000,-68.05,180.00,-27.00,CLOSED,0
671294.277,0,0,1,1.000,1.000,1.000,-67.81,180.00,-27.00,CLOSED,0
671294.281,0,0,1,1.000,1.000,1.000,-67.58,180.00,-27.00,CLOSED,0
671294.285,0,0,1,1.000,1.000,1.000,-67.32,180.00,-27.00,CLOSED,0
671294.290,0,0,1,1.000,1.000,1.000,-67.04,180.00,-27.00,CLOSED,0
671294.294,0,0,1,1.000,1.000,1.000,-66.80,180.00,-27.00,CLOSED,0
671294.298,0,0,1,1.000,1.000,1.000,-66.56,180.00,-27.00,CLOSED,0
671294.302,0,0,1,1.000,1.000,1.000,-66.30,180.00,-27.00,CLOSED,0
671294.306,0,0,1,1.000,1.000,1.000,-66.07,180.00,-27.00,CLOSED,0
671294.310,0,0,1,1.000,1.000,1.000,-65.84,180.00,-27.00,CLOSED,0
671294.313,0,0,1,1.000,1.000,1.000,-65.62,180.00,-27.00,CLOSED,0
671294.318,0,0,1,1.000,1.000,1.000,-65.34,180.00,-27.00,CLOSED,0
671294.322,0,0,1,1.000,1.000,1.000,-65.10,180.00,-27.00,CLOSED,0
671294.327,0,0,1,1.000,1.000,1.000,-64.83,180.00,-27.00,CLOSED,0
671294.331,0,0,1,1.000,1.000,1.000,-64.56,180.00,-27.00,CLOSED,1
671294.336,0,0,1,1.000,1.000,1.000,-64.27,180.00,-27.00,CLOSED,0
671294.340,0,0,1,1.000,1.000,1.000,-64.00,180.00,-27.00,CLOSED,0
671294.345,0,0,1,1.000,1.000,1.000,-63.74,180.00,-27.00,CLOSED,0
671294.349,0,0,1,1.000,1.000,1.000,-63.46,180.00,-27.00,CLOSED,0
671294.354,0,0,1,1.000,1.000,1.000,-63.17,180.00,-27.00,CLOSED,0
671294.358,0,0,1,1.000,1.000,1.000,-62.91,180.00,-27.00,CLOSED,0
671294.362,0,0,1,1.000,1.000,1.000,-62.67,180.00,-27.00,CLOSED,0
671294.367,0,0,1,1.000,1.000,1.000,-62.42,180.00,-27.00,CLOSED,0
671294.371,0,0,1,1.000,1.000,1.000,-62.16,180.00,-27.00,CLOSED,0
671294.376,0,0,1,1.000,1.000,1.000,-61.86,180.00,-27.00,CLOSED,0
671294.381,0,0,1,1.000,1.000,1.000,-61.55,180.00,-27.00,CLOSED,0
671294.386,0,0,1,1.000,1.000,1.000,-61.24,180.00,-27.00,CLOSED,0
671294.391,0,0,1,1.000,1.000,1.000,-60.96,180.00,-27.00,CLOSED,0
671294.396,0,0,1,1.000,1.000,1.000,-60.69,180.00,-27.00,CLOSED,0
671294.401,0,0,1,1.000,1.000,1.000,-60.37,180.00,-27.00,CLOSED,0
671294.406,0,0,1,1.000,1.000,1.000,-60.06,180.00,-27.00,CLOSED,0
671294.411,0,0,1,1.000,1.000,1.000,-59.76,180.00,-27.00,CLOSED,0
671294.416,0,0,1,1.000,1.000,1.000,-59.47,180.00,-27.00,CLOSED,0
671294.420,0,0,1,1.000,1.000,1.000,-59.20,180.00,-27.00,CLOSED,0
671294.425,0,0,1,1.000,1.000,1.000,-58.94,180.00,-27.00,CLOSED,0
671294.429,0,0,1,1.000,1.000,1.000,-58.67,180.00,-27.00,CLOSED,0
671294.434,0,0,1,1.000,1.000,1.000,-58.38,180.00,-27.00,CLOSED,1
671294.439,0,0,1,1.000,1.000,1.000,-58.10,180.00,-27.00,CLOSED,0
671294.443,0,0,1,1.000,1.000,1.000,-57.85,180.00,-27.00,CLOSED,0
671294.447,0,0,1,1.000,1.000,1.000,-57.60,180.00,-27.00,CLOSED,0
671294.451,0,0,1,1.000,1.000,1.000,-57.34,180.00,-27.00,CLOSED,0
671294.456,0,0,1,1.000,1.000,1.000,-57.08,180.00,-27.00,CLOSED,0
671294.460,0,0,1,1.000,1.000,1.000,-56.83,180.00,-27.00,CLOSED,0
671294.464,0,0,1,1.000,1.000,1.000,-56.59,180.00,-27.00,CLOSED,0
671294.468,0,0,1,1.000,1.000,1.000,-56.33,180.00,-27.00,CLOSED,0
671294.474,0,0,0,1.000,1.000,1.000,-56.65,180.00,-27.00,CLOSED,0
671294.479,0,0,0,1.000,1.000,1.000,-57.00,180.00,-27.00,CLOSED,0
671294.485,0,0,0,1.000,1.000,1.000,-57.34,180.00,-27.00,CLOSED,0
671294.490,0,0,0,1.000,1.000,1.000,-57.64,180.00,-27.00,CLOSED,0
671294.495,0,0,0,1.000,1.000,1.000,-57.94,180.00,-27.00,CLOSED,0
671294.500,0,0,0,1.000,1.000,1.000,-58.21,180.00,-27.00,CLOSED,0
671294.504,0,0,0,1.000,1.000,1.000,-58.48,180.00,-27.00,CLOSED,0
671294.509,0,0,0,1.000,1.000,1.000,-58.76,180.00,-27.00,CLOSED,0
671294.513,0,0,0,1.000,1.000,1.000,-59.01,180.00,-27.00,CLOSED,0
671294.517,0,0,0,1.000,1.000,1.000,-59.28,180.00,-27.00,CLOSED,0
671294.522,0,0,0,1.000,1.000,1.000,-59.54,180.00,-27.00,CLOSED,0
671294.526,0,0,0,1.000,1.000,1.000,-59.78,180.00,-27.00,CLOSED,0
671294.530,0,0,0,1.000,1.000,1.000,-60.03,180.00,-27.00,CLOSED,0
671294.534,0,0,0,1.000,1.000,1.000,-60.27,180.00,-27.00,CLOSED,0
671294.538,0,0,0,1.000,1.000,1.000,-60.54,180.00,-27.00,CLOSED,1
671294.542,0,0,0,1.000,1.000,1.000,-60.78,180.00,-27.00,CLOSED,0
671294.546,0,0,0,0.999,1.000,1.000,-61.02,180.00,-27.00,CLOSED,0
671294.551,0,0,0,1.000,1.000,1.000,-61.29,180.00,-27.00,CLOSED,0
671294.555,0,0,0,0.999,0.985,1.000,-61.54,180.00,-27.00,CLOSED,0
671294.559,0,0,0,1.000,0.997,0.988,-61.78,180.00,-27.00,CLOSED,0
671294.563,0,0,0,0.997,1.000,0.522,-62.01,180.00,-27.00,CLOSED,0
671294.567,0,0,0,0.988,1.000,0.916,-62.27,180.00,-27.00,CLOSED,0
671294.571,0,0,0,0.988,1.000,0.968,-62.52,180.00,-27.00,CLOSED,0
671294.575,0,0,0,0.984,1.000,0.974,-62.75,180.00,-27.00,CLOSED,0
671294.579,0,0,0,0.990,1.000,0.974,-63.00,180.00,-27.00,CLOSED,0
671294.584,0,0,0,0.993,1.000,0.976,-63.28,180.00,-27.00,CLOSED,0
671294.588,0,0,0,0.994,1.000,0.962,-63.53,180.00,-27.00,CLOSED,0
671294.592,0,0,0,0.996,1.000,0.967,-63.78,180.00,-27.00,CLOSED,0
671294.597,0,0,0,1.000,1.000,0.968,-64.06,180.00,-27.00,CLOSED,0
671294.602,0,0,0,1.000,1.000,0.942,-64.37,180.00,-27.00,CLOSED,0
671294.607,0,0,0,1.000,1.000,0.924,-64.65,180.00,-27.00,CLOSED,0
671294.611,0,0,0,1.000,1.000,0.954,-64.92,180.00,-27.00,CLOSED,0
671294.616,0,0,0,1.000,1.000,0.982,-65.20,180.00,-27.00,CLOSED,0
671294.620,0,0,0,1.000,1.000,0.996,-65.45,180.00,-27.00,CLOSED,0
671294.624,0,0,0,1.000,1.000,1.000,-65.70,180.00,-27.00,CLOSED,0
671294.629,0,0,0,1.000,1.000,1.000,-65.96,180.00,-27.00,CLOSED,0
671294.633,0,0,0,1.000,1.000,1.000,-66.23,180.00,-27.00,CLOSED,0
671294.638,0,0,0,1.000,1.000,1.000,-66.49,180.00,-27.00,CLOSED,0
671294.642,0,0,0,1.000,1.000,1.000,-66.75,180.00,-27.00,CLOSED,1
671294.646,0,0,0,1.000,1.000,1.000,-67.01,180.00,-27.00,CLOSED,0
671294.651,0,0,0,1.000,1.000,1.000,-67.30,180.00,-27.00,CLOSED,0
671294.655,0,0,0,1.000,0.999,1.000,-67.55,180.00,-27.00,CLOSED,0
671294.659,0,0,0,1.000,0.991,1.000,-67.79,180.00,-27.00,CLOSED,0
671294.663,0,0,0,1.000,0.974,1.000,-68.04,180.00,-27.00,CLOSED,0
671294.668,0,0,0,1.000,0.942,1.000,-68.32,180.00,-27.00,CLOSED,0
671294.672,0,0,0,1.000,0.925,1.000,-68.56,180.00,-27.00,CLOSED,0
671294.676,0,0,0,1.000,0.880,1.000,-68.80,180.00,-27.00,CLOSED,0
671294.680,0,0,0,1.000,0.821,1.000,-69.05,180.00,-27.00,CLOSED,0
671294.685,0,0,0,1.000,0.805,1.000,-69.32,180.00,-27.00,CLOSED,0
671294.689,0,0,0,0.999,0.958,1.000,-69.55,180.00,-27.00,CLOSED,0
671294.693,0,0,0,0.999,0.995,1.000,-69.82,180.00,-27.00,CLOSED,0
671294.698,0,0,0,0.999,0.999,1.000,-70.11,180.00,-27.00,CLOSED,0
671294.703,0,0,0,0.998,1.000,1.000,-70.39,180.00,-27.00,CLOSED,0
671294.707,0,0,0,1.000,1.000,1.000,-70.65,180.00,-27.00,CLOSED,0
671294.711,0,0,0,1.000,1.000,1.000,-70.92,180.00,-27.00,CLOSED,0
671294.715,0,0,0,1.000,1.000,1.000,-71.15,180.00,-27.00,CLOSED,0
671294.719,0,0,0,1.000,1.000,1.000,-71.38,180.00,-27.00,CLOSED,0
671294.723,0,0,0,1.000,1.000,1.000,-71.62,180.00,-27.00,CLOSED,0
671294.727,0,0,0,1.000,1.000,1.000,-71.85,180.00,-27.00,CLOSED,0
671294.731,0,0,0,1.000,1.000,1.000,-72.08,180.00,-27.00,CLOSED,0
671294.735,0,0,0,1.000,1.000,1.000,-72.31,180.00,-27.00,CLOSED,0
671294.738,0,0,0,1.000,1.000,1.000,-72.54,180.00,-27.00,CLOSED,0
671294.743,0,0,0,1.000,1.000,1.000,-72.79,180.00,-27.00,CLOSED,1
671294.747,0,0,0,1.000,1.000,1.000,-73.05,180.00,-27.00,CLOSED,0
671294.752,0,0,0,1.000,1.000,1.000,-73.35,180.00,-27.00,CLOSED,0
671294.756,0,0,0,1.000,1.000,1.000,-73.62,180.00,-27.00,CLOSED,0
671294.761,0,0,0,1.000,1.000,1.000,-73.87,180.00,-27.00,CLOSED,0
671294.764,0,0,0,1.000,1.000,1.000,-74.11,180.00,-27.00,CLOSED,0
671294.769,0,0,0,1.000,1.000,1.000,-74.35,180.00,-27.00,CLOSED,0
671294.773,0,0,0,1.000,1.000,1.000,-74.60,180.00,-27.00,CLOSED,0
671294.777,0,0,0,1.000,1.000,1.000,-74.84,180.00,-27.00,CLOSED,0
671294.781,0,0,0,1.000,1.000,1.000,-75.07,180.00,-27.00,CLOSED,0
671294.785,0,0,0,1.000,1.000,1.000,-75.31,180.00,-27.00,CLOSED,0
671294.789,0,0,0,1.000,1.000,1.000,-75.56,180.00,-27.00,CLOSED,0
671294.793,0,0,0,1.000,1.000,1.000,-75.81,180.00,-27.00,CLOSED,0
671294.797,0,0,0,1.000,1.000,1.000,-76.08,180.00,-27.00,CLOSED,0
671294.802,0,0,0,1.000,1.000,1.000,-76.37,180.00,-27.00,CLOSED,0
671294.806,0,0,0,1.000,1.000,1.000,-76.62,180.00,-27.00,CLOSED,0
671294.810,0,0,0,1.000,1.000,1.000,-76.86,180.00,-27.00,CLOSED,0
671294.815,0,0,0,1.000,1.000,1.000,-77.11,180.00,-27.00,CLOSED,0
671294.819,0,0,0,1.000,1.000,1.000,-77.36,180.00,-27.00,CLOSED,0
671294.823,0,0,0,1.000,1.000,1.000,-77.61,180.00,-27.00,CLOSED,0
671294.827,0,0,0,1.000,1.000,1.000,-77.86,180.00,-27.00,CLOSED,0
671294.831,0,0,0,1.000,1.000,1.000,-78.11,180.00,-27.00,CLOSED,0
671294.836,0,0,0,1.000,1.000,1.000,-78.38,180.00,-27.00,CLOSED,0
671294.840,0,0,0,1.000,1.000,1.000,-78.64,180.00,-27.00,CLOSED,0
671294.844,0,0,0,1.000,1.000,1.000,-78.89,180.00,-27.00,CLOSED,1
671294.849,0,0,0,1.000,1.000,1.000,-79.16,180.00,-27.00,CLOSED,0
671294.854,0,0,0,1.000,1.000,1.000,-79.45,180.00,-27.00,CLOSED,0
671294.858,0,0,0,1.000,1.000,1.000,-79.70,180.00,-27.00,CLOSED,0
671294.862,0,0,0,1.000,1.000,1.000,-79.95,180.00,-27.00,CLOSED,0
671294.866,0,0,0,1.000,1.000,1.000,-80.21,180.00,-27.00,CLOSED,0
671294.870,0,0,0,1.000,1.000,1.000,-80.45,180.00,-27.00,CLOSED,0
671294.875,0,0,0,1.000,1.000,1.000,-80.71,180.00,-27.00,CLOSED,0
671294.879,0,0,0,1.000,1.000,1.000,-80.98,180.00,-27.00,CLOSED,0
671294.884,0,0,0,1.000,1.000,1.000,-81.26,180.00,-27.00,CLOSED,0
671294.888,0,0,0,1.000,1.000,1.000,-81.52,180.00,-27.00,CLOSED,0
671294.892,0,0,0,1.000,1.000,1.000,-81.78,180.00,-27.00,CLOSED,0
671294.897,0,0,0,1.000,1.000,1.000,-82.07,180.00,-27.00,CLOSED,0
671294.902,0,0,0,1.000,1.000,1.000,-82.34,180.00,-27.00,CLOSED,0
671294.906,0,0,0,1.000,1.000,1.000,-82.57,180.00,-27.00,CLOSED,0
671294.910,0,0,0,1.000,1.000,1.000,-82.81,180.00,-27.00,CLOSED,0
671294.914,0,0,0,1.000,1.000,1.000,-83.07,180.00,-27.00,CLOSED,0
671294.918,0,0,0,1.000,1.000,1.000,-83.33,180.00,-27.00,CLOSED,0
671294.922,0,0,0,1.000,1.000,1.000,-83.55,180.00,-27.00,CLOSED,0
671294.926,0,0,0,1.000,1.000,1.000,-83.78,180.00,-27.00,CLOSED,0
671294.930,0,0,0,1.000,1.000,1.000,-84.02,180.00,-27.00,CLOSED,0
671294.934,0,0,0,1.000,1.000,1.000,-84.25,180.00,-27.00,CLOSED,0
671294.939,0,0,0,1.000,1.000,1.000,-84.56,180.00,-27.00,CLOSED,0
671294.946,0,0,0,1.000,1.000,1.000,-84.98,180.00,-27.00,CLOSED,1
671294.954,0,0,0,1.000,1.000,1.000,-85.45,180.00,-27.00,CLOSED,0
671294.961,0,0,0,1.000,1.000,1.000,-85.91,180.00,-27.00,CLOSED,0
671294.969,0,0,0,1.000,1.000,1.000,-86.35,180.00,-27.00,CLOSED,0
671294.975,0,0,0,1.000,1.000,1.000,-86.76,180.00,-27.00,CLOSED,0
671294.981,0,0,0,1.000,1.000,1.000,-87.10,180.00,-27.00,CLOSED,0
671294.986,0,0,0,1.000,1.000,1.000,-87.42,180.00,-27.00,CLOSED,0
671294.992,0,0,0,1.000,1.000,1.000,-87.73,180.00,-27.00,CLOSED,0
671294.996,0,0,0,1.000,1.000,1.000,-88.00,180.00,-27.00,CLOSED,0
671295.001,0,0,0,1.000,1.000,1.000,-88.27,180.00,-27.00,CLOSED,0
671295.005,0,0,0,1.000,1.000,1.000,-88.53,180.00,-27.00,CLOSED,0
671295.009,0,0,0,1.000,1.000,1.000,-88.80,180.00,-27.00,CLOSED,0
671295.014,0,0,0,1.000,1.000,1.000,-89.07,180.00,-27.00,CLOSED,0
671295.019,0,0,0,1.000,1.000,1.000,-89.36,180.00,-27.00,CLOSED,0
671295.024,0,0,0,1.000,1.000,1.000,-89.65,180.00,-27.00,CLOSED,0
671295.029,0,0,0,1.000,1.000,1.000,-89.95,180.00,-27.00,CLOSED,0
671295.034,0,0,0,1.000,1.000,1.000,-90.00,180.00,-27.00,CLOSED,0
671295.039,0,0,0,1.000,1.000,1.000,-90.00,180.00,-27.00,CLOSED,0
671295.043,0,0,0,1.000,1.000,1.000,-90.00,180.00,-27.00,CLOSED,0
671295.047,0,0,0,1.000,1.000,1.000,-90.00,180.00,-27.00,CLOSED,1
671295.052,0,0,0,1.000,1.000,1.000,-90.00,180.00,-27.00,CLOSED,0
671295.056,0,0,0,1.000,1.000,1.000,-90.00,180.00,-27.00,CLOSED,0
671295.060,0,0,0,1.000,1.000,1.000,-90.00,180.00,-27.00,CLOSED,0
671295.065,0,0,0,1.000,1.000,1.000,-90.00,180.00,-27.00,CLOSED,0
671295.070,0,0,0,1.000,1.000,1.000,-90.00,180.00,-27.00,CLOSED,0
671295.074,0,0,0,1.000,1.000,1.000,-90.00,180.00,-27.00,CLOSED,0
671295.079,0,0,0,1.000,1.000,1.000,-90.00,180.00,-27.00,CLOSED,0
671295.084,0,0,0,1.000,1.000,1.000,-90.00,180.00,-27.00,CLOSED,0
671295.088,0,0,0,1.000,1.000,1.000,-90.00,180.00,-27.00,CLOSED,0
671295.095,0,1,0,1.000,1.000,1.000,-90.00,179.54,-27.00,CLOSED,0
671295.105,0,1,1,1.000,1.000,1.000,-89.44,178.98,-27.00,CLOSED,0
671295.115,0,1,1,1.000,1.000,1.000,-88.86,178.39,-27.00,CLOSED,0
671295.123,0,1,1,1.000,1.000,1.000,-88.35,177.89,-27.00,CLOSED,0
671295.130,0,1,1,1.000,1.000,1.000,-87.90,177.44,-27.00,CLOSED,0
671295.139,0,1,1,1.000,1.000,1.000,-87.42,176.95,-27.00,CLOSED,0
671295.149,0,1,1,1.000,1.000,1.000,-86.79,176.32,-27.00,CLOSED,1
671295.155,0,1,1,1.000,1.000,1.000,-86.46,175.99,-27.00,CLOSED,0
671295.159,0,1,1,1.000,0.999,1.000,-86.16,175.70,-27.00,CLOSED,0
671295.164,0,1,1,1.000,0.995,1.000,-85.87,175.41,-27.00,CLOSED,0
671295.169,0,1,1,1.000,0.975,1.000,-85.58,175.11,-27.00,CLOSED,0
671295.174,0,1,1,1.000,0.857,0.999,-85.30,174.84,-27.00,CLOSED,0
671295.178,0,1,1,1.000,0.741,0.998,-85.05,174.59,-27.00,CLOSED,0
671295.182,0,1,1,1.000,0.639,0.992,-84.80,174.34,-27.00,CLOSED,0
671295.186,0,1,1,0.999,0.914,0.968,-84.57,174.10,-27.00,CLOSED,0
671295.190,0,1,1,0.999,0.976,0.877,-84.33,173.86,-27.00,CLOSED,0
671295.194,0,1,1,0.999,0.990,0.686,-84.08,173.61,-27.00,CLOSED,0
671295.198,0,1,1,0.998,0.996,0.554,-83.82,173.36,-27.00,CLOSED,0
671295.203,0,1,1,0.999,0.992,0.619,-83.53,173.07,-27.00,CLOSED,0
671295.208,0,1,1,0.999,0.995,0.804,-83.25,172.78,-27.00,CLOSED,0
671295.213,0,1,1,0.999,1.000,0.941,-82.98,172.51,-27.00,CLOSED,0
671295.217,0,1,1,1.000,1.000,0.996,-82.70,172.24,-27.00,CLOSED,0
671295.222,0,1,1,1.000,1.000,0.996,-82.42,171.96,-27.00,CLOSED,0
671295.226,0,1,1,1.000,1.000,0.999,-82.16,171.70,-27.00,CLOSED,0
671295.231,0,1,1,1.000,1.000,0.999,-81.90,171.43,-27.00,CLOSED,0
671295.235,0,1,1,1.000,1.000,0.998,-81.61,171.14,-27.00,CLOSED,0
671295.241,0,1,1,1.000,1.000,0.998,-81.27,170.80,-27.00,CLOSED,0
671295.246,0,1,1,1.000,1.000,0.995,-80.97,170.51,-27.00,CLOSED,0
671295.251,0,1,1,1.000,1.000,0.988,-80.68,170.21,-27.00,CLOSED,1
671295.256,0,1,1,1.000,1.000,0.554,-80.37,169.90,-27.00,CLOSED,0
671295.261,0,1,1,1.000,0.998,0.952,-80.08,169.62,-27.00,CLOSED,0
671295.266,0,1,1,1.000,0.994,0.942,-79.80,169.33,-27.00,CLOSED,0
671295.270,0,1,1,1.000,0.986,0.952,-79.51,169.05,-27.00,CLOSED,0
671295.275,0,1,1,1.000,0.926,0.977,-79.23,168.77,-27.00,CLOSED,0
671295.280,0,1,1,1.000,0.668,0.982,-78.92,168.46,-27.00,CLOSED,0
671295.286,0,1,1,1.000,0.990,0.994,-78.58,168.12,-27.00,CLOSED,0
671295.291,0,1,1,1.000,1.000,0.994,-78.26,167.80,-27.00,CLOSED,0
671295.296,0,1,1,1.000,1.000,0.995,-77.99,167.52,-27.00,CLOSED,0
671295.300,0,1,1,1.000,1.000,0.979,-77.71,167.24,-27.00,CLOSED,0
671295.305,0,1,1,1.000,1.000,0.965,-77.43,166.96,-27.00,CLOSED,0
671295.310,0,1,1,1.000,1.000,0.951,-77.14,166.68,-27.00,CLOSED,0
671295.314,0,1,1,1.000,0.998,0.823,-76.87,166.41,-27.00,CLOSED,0
671295.319,0,1,1,1.000,0.991,0.642,-76.62,166.15,-27.00,CLOSED,0
671295.323,0,1,1,1.000,0.915,0.775,-76.37,165.90,-27.00,CLOSED,0
671295.327,0,1,1,1.000,0.762,0.873,-76.13,165.66,-27.00,CLOSED,0
671295.331,0,1,1,1.000,0.502,0.918,-75.89,165.42,-27.00,CLOSED,0
671295.335,0,1,1,1.000,0.719,0.947,-75.63,165.17,-27.00,CLOSED,0
671295.339,0,1,1,1.000,0.862,0.970,-75.39,164.92,-27.00,CLOSED,0
671295.343,0,1,1,1.000,0.974,0.993,-75.13,164.67,-27.00,CLOSED,0
671295.348,0,1,1,1.000,0.996,0.998,-74.86,164.39,-27.00,CLOSED,0
671295.353,0,1,1,1.000,0.999,0.999,-74.54,164.07,-27.00,CLOSED,1
671295.358,0,1,1,1.000,1.000,1.000,-74.27,163.81,-27.00,CLOSED,0
671295.362,0,1,1,1.000,1.000,1.000,-74.01,163.54,-27.00,CLOSED,0
671295.368,0,1,1,1.000,1.000,1.000,-73.68,163.21,-27.00,CLOSED,0
671295.372,0,1,1,1.000,1.000,1.000,-73.42,162.95,-27.00,CLOSED,0
671295.376,0,1,1,1.000,1.000,1.000,-73.16,162.70,-27.00,CLOSED,0
671295.381,0,1,1,1.000,1.000,1.000,-72.90,162.43,-27.00,CLOSED,0
671295.385,0,1,1,1.000,1.000,1.000,-72.65,162.18,-27.00,CLOSED,0
671295.389,0,1,1,1.000,1.000,1.000,-72.39,161.92,-27.00,CLOSED,0
671295.393,0,1,1,1.000,1.000,1.000,-72.15,161.69,-27.00,CLOSED,0
671295.397,0,1,1,1.000,1.000,1.000,-71.91,161.45,-27.00,CLOSED,0
671295.401,0,1,1,1.000,1.000,1.000,-71.66,161.19,-27.00,CLOSED,0
671295.405,0,1,1,1.000,1.000,1.000,-71.41,160.95,-27.00,CLOSED,0
671295.410,0,1,1,1.000,1.000,1.000,-71.15,160.68,-27.00,CLOSED,0
671295.414,0,1,1,1.000,1.000,1.000,-70.90,160.43,-27.00,CLOSED,0
671295.418,0,1,1,1.000,1.000,1.000,-70.63,160.17,-27.00,CLOSED,0
671295.423,0,1,1,1.000,1.000,1.000,-70.37,159.90,-27.00,CLOSED,0
671295.427,0,1,1,1.000,1.000,1.000,-70.08,159.62,-27.00,CLOSED,0
671295.432,0,1,1,1.000,1.000,1.000,-69.81,159.34,-27.00,CLOSED,0
671295.437,0,1,1,1.000,1.000,1.000,-69.54,159.07,-27.00,CLOSED,0
671295.441,0,1,1,1.000,1.000,1.000,-69.26,158.79,-27.00,CLOSED,0
671295.446,0,1,1,1.000,1.000,1.000,-69.00,158.53,-27.00,CLOSED,0
671295.450,0,1,1,1.000,1.000,1.000,-68.75,158.28,-27.00,CLOSED,0
671295.454,0,1,1,1.000,1.000,1.000,-68.49,158.03,-27.00,CLOSED,1
671295.459,0,1,1,1.000,1.000,1.000,-68.21,157.75,-27.00,CLOSED,0
671295.463,0,1,1,1.000,1.000,1.000,-67.97,157.51,-27.00,CLOSED,0
671295.467,0,1,1,1.000,1.000,1.000,-67.73,157.27,-27.00,CLOSED,0
671295.471,0,1,1,1.000,1.000,1.000,-67.49,157.02,-27.00,CLOSED,0
671295.475,0,1,1,1.000,1.000,1.000,-67.24,156.78,-27.00,CLOSED,0
671295.479,0,1,1,1.000,1.000,1.000,-67.00,156.53,-27.00,CLOSED,0
671295.483,0,1,1,1.000,1.000,1.000,-66.73,156.27,-27.00,CLOSED,0
671295.488,0,1,1,1.000,1.000,1.000,-66.46,156.00,-27.00,CLOSED,0
671295.492,0,1,1,1.000,1.000,1.000,-66.22,155.75,-27.00,CLOSED,0
671295.496,0,1,1,1.000,1.000,1.000,-65.96,155.49,-27.00,CLOSED,0
671295.501,0,1,1,1.000,1.000,1.000,-65.69,155.22,-27.00,CLOSED,0
671295.505,0,1,1,1.000,1.000,1.000,-65.42,154.95,-27.00,CLOSED,0
671295.509,0,1,1,1.000,1.000,1.000,-65.17,154.70,-27.00,CLOSED,0
671295.513,0,1,1,1.000,1.000,1.000,-64.93,154.46,-27.00,CLOSED,0
671295.518,0,1,1,1.000,1.000,1.000,-64.66,154.19,-27.00,CLOSED,0
671295.522,0,1,1,1.000,1.000,1.000,-64.42,153.95,-27.00,CLOSED,0
671295.526,0,1,1,1.000,1.000,1.000,-64.18,153.72,-27.00,CLOSED,0
671295.530,0,1,1,1.000,1.000,1.000,-63.95,153.48,-27.00,CLOSED,0
671295.534,0,1,1,1.000,1.000,1.000,-63.68,153.22,-27.00,CLOSED,0
671295.539,0,1,1,1.000,1.000,1.000,-63.41,152.95,-27.00,CLOSED,0
671295.543,0,1,1,1.000,1.000,1.000,-63.17,152.70,-27.00,CLOSED,0
671295.547,0,1,1,1.000,1.000,1.000,-62.92,152.46,-27.00,CLOSED,0
671295.551,0,1,1,1.000,1.000,1.000,-62.65,152.18,-27.00,CLOSED,0
671295.556,0,1,1,1.000,1.000,1.000,-62.39,151.93,-27.00,CLOSED,1
671295.560,0,1,1,1.000,1.000,1.000,-62.11,151.65,-27.00,CLOSED,0
671295.565,0,1,1,1.000,1.000,1.000,-61.82,151.35,-27.00,CLOSED,0
671295.570,0,1,1,1.000,1.000,1.000,-61.53,151.07,-27.00,CLOSED,0
671295.575,0,1,1,1.000,1.000,1.000,-61.24,150.78,-27.00,CLOSED,0
671295.580,0,1,1,1.000,1.000,1.000,-60.95,150.49,-27.00,CLOSED,0
671295.585,0,1,1,1.000,1.000,1.000,-60.65,150.18,-27.00,CLOSED,0
671295.589,0,1,1,1.000,1.000,1.000,-60.37,149.91,-27.00,CLOSED,0
671295.594,0,1,1,1.000,1.000,1.000,-60.10,149.63,-27.00,CLOSED,0
671295.598,0,1,1,1.000,1.000,1.000,-59.83,149.36,-27.00,CLOSED,0
671295.603,0,1,1,1.000,1.000,1.000,-59.55,149.08,-27.00,CLOSED,0
671295.607,0,1,1,1.000,1.000,1.000,-59.29,148.82,-27.00,CLOSED,0
671295.612,0,1,1,1.000,1.000,1.000,-59.03,148.56,-27.00,CLOSED,0
671295.617,0,1,1,1.000,1.000,1.000,-58.71,148.24,-27.00,CLOSED,0
671295.621,0,1,1,1.000,1.000,1.000,-58.44,147.98,-27.00,CLOSED,0
671295.626,0,1,1,1.000,1.000,1.000,-58.18,147.71,-27.00,CLOSED,0
671295.630,0,1,1,1.000,1.000,1.000,-57.93,147.46,-27.00,CLOSED,0
671295.634,0,1,1,1.000,1.000,1.000,-57.68,147.21,-27.00,CLOSED,0
671295.638,0,1,1,1.000,1.000,1.000,-57.44,146.97,-27.00,CLOSED,0
671295.642,0,1,1,1.000,1.000,1.000,-57.19,146.73,-27.00,CLOSED,0
671295.646,0,1,1,1.000,1.000,1.000,-56.95,146.48,-27.00,CLOSED,0
671295.650,0,1,1,1.000,1.000,1.000,-56.70,146.24,-27.00,CLOSED,0
671295.654,0,1,1,1.000,1.000,1.000,-56.46,146.00,-27.00,CLOSED,0
671295.658,0,1,1,1.000,1.000,1.000,-56.23,145.76,-27.00,CLOSED,1
671295.662,0,1,1,1.000,1.000,1.000,-55.98,145.52,-27.00,CLOSED,0
671295.667,0,1,1,1.000,1.000,1.000,-55.73,145.27,-27.00,CLOSED,0
671295.671,0,1,1,1.000,1.000,1.000,-55.50,145.03,-27.00,CLOSED,0
671295.675,0,1,1,1.000,1.000,1.000,-55.24,144.77,-27.00,CLOSED,0
671295.679,0,1,1,1.000,1.000,1.000,-54.99,144.53,-27.00,CLOSED,0
671295.683,0,1,1,1.000,1.000,1.000,-54.75,144.29,-27.00,CLOSED,0
671295.687,0,1,1,1.000,1.000,1.000,-54.52,144.06,-27.00,CLOSED,0
671295.691,0,1,1,1.000,1.000,1.000,-54.28,143.82,-27.00,CLOSED,0
671295.695,0,1,1,1.000,1.000,1.000,-54.03,143.57,-27.00,CLOSED,0
671295.700,0,1,1,1.000,1.000,1.000,-53.75,143.29,-27.00,CLOSED,0
671295.703,0,1,1,1.000,1.000,1.000,-53.52,143.06,-27.00,CLOSED,0
671295.707,0,1,1,1.000,1.000,1.000,-53.29,142.83,-27.00,CLOSED,0
671295.711,0,1,1,1.000,1.000,1.000,-53.07,142.60,-27.00,CLOSED,0
671295.715,0,1,1,1.000,1.000,1.000,-52.84,142.38,-27.00,CLOSED,0
671295.723,0,0,1,1.000,1.000,1.000,-52.38,142.85,-27.00,CLOSED,0
671295.732,0,0,1,1.000,1.000,1.000,-51.80,143.42,-27.00,CLOSED,0
671295.741,0,0,0,1.000,1.000,1.000,-52.30,143.93,-27.00,CLOSED,0
671295.748,0,0,0,1.000,1.000,1.000,-52.74,144.36,-27.00,CLOSED,0
671295.755,0,0,0,1.000,1.000,1.000,-53.15,144.77,-27.00,CLOSED,0
671295.761,0,0,0,1.000,1.000,1.000,-53.50,145.12,-27.00,CLOSED,1
671295.766,0,0,0,1.000,1.000,1.000,-53.82,145.45,-27.00,CLOSED,0
671295.771,0,0,0,1.000,1.000,1.000,-54.13,145.75,-27.00,CLOSED,0
671295.776,0,0,0,1.000,1.000,1.000,-54.41,146.03,-27.00,CLOSED,0
671295.780,0,0,0,1.000,1.000,1.000,-54.69,146.31,-27.00,CLOSED,0
671295.785,0,0,0,1.000,1.000,1.000,-54.95,146.57,-27.00,CLOSED,0
671295.789,0,0,0,0.990,1.000,1.000,-55.21,146.83,-27.00,CLOSED,0
671295.793,0,0,0,0.988,1.000,1.000,-55.46,147.08,-27.00,CLOSED,0
671295.797,0,0,0,0.564,1.000,1.000,-55.70,147.32,-27.00,CLOSED,0
671295.802,0,0,0,0.740,1.000,1.000,-55.98,147.60,-27.00,CLOSED,0
671295.806,0,0,0,0.765,1.000,1.000,-56.24,147.86,-27.00,CLOSED,0
671295.810,0,0,0,0.770,1.000,1.000,-56.48,148.10,-27.00,CLOSED,0
671295.814,0,0,0,0.847,1.000,1.000,-56.72,148.34,-27.00,CLOSED,0
671295.819,0,0,0,0.610,1.000,1.000,-57.01,148.63,-27.00,CLOSED,0
671295.823,0,0,0,0.876,1.000,1.000,-57.25,148.87,-27.00,CLOSED,0
671295.827,0,0,0,0.973,1.000,1.000,-57.49,149.12,-27.00,CLOSED,0
671295.831,0,0,0,0.999,1.000,1.000,-57.74,149.36,-27.00,CLOSED,0
671295.836,3,0,0,1.000,1.000,1.000,-58.04,149.66,-27.00,OPEN,0
671295.840,3,0,0,1.000,1.000,1.000,-58.28,149.90,-27.00,OPEN,0
671295.844,3,0,0,1.000,1.000,1.000,-58.54,150.16,-27.00,OPEN,0
671295.849,3,0,0,1.000,1.000,1.000,-58.80,150.42,-27.00,OPEN,0
671295.853,3,0,0,1.000,1.000,1.000,-59.05,150.67,-27.00,OPEN,0
671295.859,3,0,0,1.000,1.000,1.000,-59.40,151.02,-27.00,OPEN,0
671295.866,3,0,0,1.000,0.993,1.000,-59.84,151.46,-27.00,OPEN,1
671295.872,3,0,0,1.000,1.000,1.000,-60.22,151.84,-27.00,OPEN,0
671295.878,3,0,0,1.000,1.000,1.000,-60.56,152.18,-27.00,OPEN,0
671295.884,3,0,0,1.000,1.000,1.000,-60.90,152.52,-27.00,OPEN,0
671295.889,3,0,0,1.000,1.000,1.000,-61.20,152.82,-27.00,OPEN,0
671295.894,3,0,0,1.000,1.000,1.000,-61.48,153.11,-27.00,OPEN,0
671295.899,3,0,0,1.000,1.000,1.000,-61.78,153.40,-27.00,OPEN,0
671295.903,3,0,0,1.000,1.000,1.000,-62.04,153.66,-27.00,OPEN,0
671295.907,3,0,0,1.000,1.000,1.000,-62.29,153.91,-27.00,OPEN,0
671295.911,3,0,0,1.000,1.000,1.000,-62.54,154.16,-27.00,OPEN,0
671295.915,3,0,0,1.000,1.000,1.000,-62.78,154.40,-27.00,OPEN,0
671295.919,3,0,0,1.000,1.000,1.000,-63.02,154.64,-27.00,OPEN,0
671295.923,3,0,0,1.000,1.000,1.000,-63.26,154.88,-27.00,OPEN,0
671295.928,3,0,0,1.000,1.000,1.000,-63.53,155.15,-27.00,OPEN,0
671295.932,3,0,0,1.000,1.000,1.000,-63.80,155.42,-27.00,OPEN,0
671295.936,3,0,0,1.000,1.000,1.000,-64.05,155.67,-27.00,OPEN,0
671295.940,3,0,0,1.000,1.000,1.000,-64.29,155.91,-27.00,OPEN,0
671295.944,3,0,0,1.000,1.000,1.000,-64.54,156.16,-27.00,OPEN,0
671295.948,3,0,0,1.000,1.000,1.000,-64.77,156.39,-27.00,OPEN,0
671295.955,3,0,0,1.000,1.000,1.000,-65.17,156.80,-27.00,OPEN,0
671295.964,3,0,0,1.000,1.000,1.000,-65.70,157.32,-27.00,OPEN,0
671295.972,3,0,0,1.000,1.000,1.000,-66.17,157.79,-27.00,OPEN,1
671295.979,3,0,0,1.000,1.000,1.000,-66.59,158.21,-27.00,OPEN,0
671295.985,3,0,0,1.000,1.000,1.000,-66.97,158.59,-27.00,OPEN,0
671295.991,3,0,0,1.000,1.000,1.000,-67.33,158.95,-27.00,OPEN,0
671295.996,3,0,0,1.000,1.000,1.000,-67.63,159.25,-27.00,OPEN,0
671296.001,3,0,0,1.000,1.000,1.000,-67.92,159.54,-27.00,OPEN,0
671296.006,3,0,0,1.000,1.000,1.000,-68.21,159.83,-27.00,OPEN,0
671296.010,3,0,0,1.000,1.000,1.000,-68.47,160.09,-27.00,OPEN,0
671296.014,3,0,0,1.000,1.000,1.000,-68.71,160.33,-27.00,OPEN,0
671296.018,3,0,0,1.000,1.000,1.000,-68.95,160.57,-27.00,OPEN,0
671296.022,3,0,0,1.000,1.000,1.000,-69.19,160.81,-27.00,OPEN,0
671296.026,3,0,0,1.000,1.000,1.000,-69.42,161.04,-27.00,OPEN,0
671296.030,3,0,0,1.000,1.000,1.000,-69.65,161.27,-27.00,OPEN,0
671296.033,3,0,0,1.000,1.000,1.000,-69.88,161.50,-27.00,OPEN,0
671296.037,3,0,0,1.000,1.000,1.000,-70.11,161.74,-27.00,OPEN,0
671296.041,3,0,0,1.000,1.000,1.000,-70.34,161.96,-27.00,OPEN,0
671296.045,3,0,0,1.000,1.000,1.000,-70.58,162.20,-27.00,OPEN,0
671296.049,3,0,0,1.000,1.000,1.000,-70.82,162.45,-27.00,OPEN,0
671296.053,3,0,0,1.000,1.000,1.000,-71.08,162.70,-27.00,OPEN,0
671296.058,3,0,0,1.000,1.000,1.000,-71.34,162.96,-27.00,OPEN,0
671296.062,3,0,0,1.000,1.000,1.000,-71.61,163.23,-27.00,OPEN,0
671296.067,3,0,0,1.000,1.000,1.000,-71.88,163.50,-27.00,OPEN,0
671296.071,3,0,0,1.000,1.000,1.000,-72.16,163.78,-27.00,OPEN,0
671296.076,3,0,0,1.000,1.000,1.000,-72.41,164.03,-27.00,OPEN,1
671296.080,3,0,0,1.000,1.000,1.000,-72.68,164.30,-27.00,OPEN,0
671296.085,3,0,0,1.000,1.000,1.000,-72.96,164.58,-27.00,OPEN,0
671296.089,3,0,0,1.000,1.000,1.000,-73.21,164.83,-27.00,OPEN,0
671296.093,3,0,0,1.000,1.000,1.000,-73.47,165.09,-27.00,OPEN,0
671296.098,3,0,0,1.000,1.000,1.000,-73.74,165.36,-27.00,OPEN,0
671296.102,3,0,0,1.000,1.000,1.000,-74.02,165.64,-27.00,OPEN,0
671296.107,3,0,0,1.000,1.000,1.000,-74.27,165.89,-27.00,OPEN,0
671296.111,3,0,0,1.000,1.000,1.000,-74.51,166.14,-27.00,OPEN,0
671296.115,3,0,0,1.000,1.000,1.000,-74.77,166.39,-27.00,OPEN,0
671296.120,3,0,0,1.000,1.000,1.000,-75.05,166.67,-27.00,OPEN,0
671296.126,3,0,0,1.000,1.000,1.000,-75.42,167.04,-27.00,OPEN,0
671296.133,3,0,0,1.000,1.000,1.000,-75.87,167.49,-27.00,OPEN,0
671296.140,3,0,0,1.000,1.000,1.000,-76.28,167.91,-27.00,OPEN,0
671296.150,3,0,0,1.000,1.000,1.000,-76.88,168.50,-27.00,OPEN,0
671296.157,3,0,0,1.000,1.000,1.000,-77.28,168.90,-27.00,OPEN,0
671296.163,3,0,0,1.000,1.000,1.000,-77.63,169.25,-27.00,OPEN,0
671296.168,3,0,0,1.000,1.000,1.000,-77.94,169.56,-27.00,OPEN,0
671296.172,3,0,0,1.000,1.000,1.000,-78.22,169.84,-27.00,OPEN,0
671296.177,3,0,0,1.000,1.000,1.000,-78.49,170.11,-27.00,OPEN,1
671296.181,3,0,0,1.000,1.000,1.000,-78.76,170.38,-27.00,OPEN,0
671296.186,3,0,0,1.000,1.000,1.000,-79.03,170.65,-27.00,OPEN,0
671296.190,3,0,0,1.000,1.000,1.000,-79.30,170.92,-27.00,OPEN,0
671296.195,3,0,0,1.000,1.000,1.000,-79.54,171.16,-27.00,OPEN,0
671296.199,3,0,0,1.000,1.000,1.000,-79.79,171.41,-27.00,OPEN,0
671296.203,3,0,0,1.000,1.000,1.000,-80.06,171.68,-27.00,OPEN,0
671296.207,3,0,0,1.000,1.000,1.000,-80.31,171.93,-27.00,OPEN,0
671296.211,3,0,0,1.000,1.000,1.000,-80.55,172.17,-27.00,OPEN,0
671296.215,3,0,0,1.000,1.000,1.000,-80.80,172.42,-27.00,OPEN,0
671296.220,3,0,0,1.000,1.000,1.000,-81.05,172.67,-27.00,OPEN,0
671296.224,3,0,0,1.000,1.000,1.000,-81.30,172.92,-27.00,OPEN,0
671296.228,3,0,0,1.000,1.000,1.000,-81.54,173.17,-27.00,OPEN,0
671296.232,3,0,0,1.000,1.000,1.000,-81.80,173.42,-27.00,OPEN,0
671296.237,3,0,0,1.000,1.000,1.000,-82.07,173.69,-27.00,OPEN,0
671296.241,3,0,0,1.000,1.000,1.000,-82.32,173.95,-27.00,OPEN,0
671296.245,3,0,0,1.000,1.000,1.000,-82.57,174.19,-27.00,OPEN,0
671296.249,3,0,0,1.000,1.000,1.000,-82.84,174.46,-27.00,OPEN,0
671296.253,3,0,0,1.000,1.000,1.000,-83.08,174.70,-27.00,OPEN,0
671296.258,3,0,0,1.000,1.000,1.000,-83.33,174.95,-27.00,OPEN,0
671296.262,3,0,0,1.000,1.000,1.000,-83.57,175.19,-27.00,OPEN,0
671296.266,3,0,0,1.000,1.000,1.000,-83.83,175.45,-27.00,OPEN,0
671296.270,3,0,0,1.000,1.000,1.000,-84.06,175.68,-27.00,OPEN,0
671296.274,3,0,0,1.000,1.000,1.000,-84.29,175.91,-27.00,OPEN,0
671296.278,3,0,0,1.000,1.000,1.000,-84.53,176.16,-27.00,OPEN,1
671296.283,3,0,0,1.000,1.000,1.000,-84.83,176.45,-27.00,OPEN,0
671296.288,3,0,0,1.000,1.000,1.000,-85.13,176.75,-27.00,OPEN,0
671296.292,3,0,0,1.000,1.000,1.000,-85.38,177.00,-27.00,OPEN,0
671296.296,3,0,0,1.000,1.000,1.000,-85.64,177.26,-27.00,OPEN,0
671296.301,3,0,0,1.000,1.000,1.000,-85.95,177.57,-27.00,OPEN,0
671296.305,3,0,0,1.000,1.000,1.000,-86.20,177.82,-27.00,OPEN,0
671296.309,3,0,0,1.000,1.000,1.000,-86.44,178.06,-27.00,OPEN,0
671296.313,3,0,0,1.000,1.000,1.000,-86.68,178.30,-27.00,OPEN,0
671296.318,3,0,0,1.000,1.000,1.000,-86.93,178.55,-27.00,OPEN,0
671296.322,3,0,0,1.000,1.000,1.000,-87.17,178.79,-27.00,OPEN,0
671296.326,3,0,0,1.000,1.000,1.000,-87.42,179.04,-27.00,OPEN,0
671296.330,3,0,0,1.000,1.000,1.000,-87.66,179.28,-27.00,OPEN,0
671296.334,3,0,0,1.000,1.000,1.000,-87.89,179.51,-27.00,OPEN,0
671296.338,3,0,0,1.000,1.000,1.000,-88.13,179.75,-27.00,OPEN,0
671296.341,3,0,0,1.000,1.000,1.000,-88.36,179.98,-27.00,OPEN,0
671296.345,3,0,0,1.000,1.000,1.000,-88.59,180.00,-27.00,OPEN,0
671296.350,3,0,0,1.000,1.000,1.000,-88.85,180.00,-27.00,OPEN,0
671296.354,3,0,0,1.000,1.000,1.000,-89.13,180.00,-27.00,OPEN,0
671296.359,3,0,0,1.000,1.000,1.000,-89.44,180.00,-27.00,OPEN,0
671296.364,3,0,0,1.000,1.000,1.000,-89.71,180.00,-27.00,OPEN,0
671296.369,3,0,0,1.000,1.000,1.000,-90.00,180.00,-27.00,OPEN,0
671296.374,3,0,0,1.000,1.000,1.000,-90.00,180.00,-27.00,OPEN,0
671296.378,3,0,0,1.000,1.000,1.000,-90.00,180.00,-27.00,OPEN,1
671296.383,3,0,0,1.000,1.000,1.000,-90.00,180.00,-27.00,OPEN,0
671296.388,3,0,0,1.000,1.000,1.000,-90.00,180.00,-27.00,OPEN,0
671296.392,3,0,0,1.000,1.000,1.000,-90.00,180.00,-27.00,OPEN,0
671296.396,3,0,0,1.000,1.000,1.000,-90.00,180.00,-27.00,OPEN,0
671296.400,3,0,0,0.999,0.999,1.000,-90.00,180.00,-27.00,OPEN,0
671296.405,3,0,0,0.998,0.986,1.000,-90.00,180.00,-27.00,OPEN,0
671296.409,3,1,0,0.987,0.544,1.000,-90.00,179.75,-27.00,OPEN,0
671296.413,3,1,0,0.807,0.859,1.000,-90.00,179.48,-27.00,OPEN,0
671296.418,3,1,0,0.489,0.987,1.000,-90.00,179.19,-27.00,OPEN,0
671296.423,3,1,0,0.795,0.994,1.000,-90.00,178.89,-27.00,OPEN,0
671296.427,3,1,0,0.951,1.000,1.000,-90.00,178.64,-27.00,OPEN,0
671296.432,3,1,0,0.999,1.000,1.000,-90.00,178.36,-27.00,OPEN,0
671296.436,3,1,0,0.999,1.000,1.000,-90.00,178.10,-27.00,OPEN,0
671296.441,3,1,0,1.000,1.000,1.000,-90.00,177.82,-27.00,OPEN,0
671296.445,3,1,0,1.000,1.000,1.000,-90.00,177.57,-27.00,OPEN,0
671296.449,3,1,0,1.000,1.000,1.000,-90.00,177.32,-27.00,OPEN,0
671296.454,0,1,0,1.000,1.000,1.000,-90.00,177.03,-27.00,OPEN,0
671296.459,0,1,0,1.000,1.000,1.000,-90.00,176.75,-27.00,OPEN,0
671296.463,0,1,0,1.000,1.000,1.000,-90.00,176.48,-27.00,OPEN,0
671296.468,0,1,0,1.000,1.000,1.000,-90.00,176.20,-27.00,OPEN,0
671296.472,0,1,0,1.000,1.000,1.000,-90.00,175.93,-27.00,OPEN,0
671296.477,0,1,0,1.000,1.000,1.000,-90.00,175.67,-27.00,OPEN,0
671296.481,0,1,0,1.000,1.000,1.000,-90.00,175.41,-27.00,OPEN,1
671296.485,0,1,0,1.000,1.000,1.000,-90.00,175.14,-27.00,OPEN,0
671296.490,0,1,0,1.000,1.000,1.000,-90.00,174.90,-27.00,OPEN,0
671296.494,0,1,0,1.000,1.000,1.000,-90.00,174.66,-27.00,OPEN,0
671296.498,0,1,0,1.000,1.000,1.000,-90.00,174.39,-27.00,OPEN,0
671296.502,0,1,0,1.000,1.000,1.000,-90.00,174.14,-27.00,OPEN,0
671296.506,0,1,0,1.000,1.000,1.000,-90.00,173.90,-27.00,OPEN,0
671296.510,0,1,0,1.000,1.000,1.000,-90.00,173.66,-27.00,OPEN,0
671296.514,0,1,0,1.000,1.000,1.000,-90.00,173.42,-27.00,OPEN,0
671296.518,0,1,0,1.000,1.000,1.000,-90.00,173.19,-27.00,OPEN,0
671296.522,0,1,0,1.000,1.000,1.000,-90.00,172.96,-27.00,OPEN,0
671296.526,0,1,0,1.000,1.000,1.000,-90.00,172.74,-27.00,OPEN,0
671296.529,0,1,0,1.000,1.000,1.000,-90.00,172.52,-27.00,OPEN,0
671296.533,0,1,0,1.000,1.000,1.000,-90.00,172.29,-27.00,OPEN,0
671296.537,0,1,0,1.000,1.000,1.000,-90.00,172.04,-27.00,OPEN,0
671296.542,0,1,0,1.000,1.000,1.000,-90.00,171.73,-27.00,OPEN,0
671296.548,0,1,0,1.000,1.000,1.000,-90.00,171.39,-27.00,OPEN,0
671296.555,0,1,0,1.000,1.000,1.000,-90.00,170.97,-27.00,OPEN,0
671296.561,0,1,0,1.000,1.000,1.000,-90.00,170.61,-27.00,OPEN,0
671296.566,0,1,0,1.000,1.000,1.000,-90.00,170.28,-27.00,OPEN,0
671296.572,0,1,0,1.000,1.000,1.000,-90.00,169.98,-27.00,OPEN,0
671296.576,0,1,0,1.000,1.000,1.000,-90.00,169.70,-27.00,OPEN,0
671296.581,0,1,0,1.000,1.000,1.000,-90.00,169.43,-27.00,OPEN,0
671296.585,0,1,0,1.000,1.000,1.000,-90.00,169.16,-27.00,OPEN,1
671296.590,0,1,0,1.000,1.000,1.000,-90.00,168.89,-27.00,OPEN,0
671296.594,0,1,0,1.000,1.000,1.000,-90.00,168.62,-27.00,OPEN,0
671296.599,0,1,0,1.000,1.000,1.000,-90.00,168.34,-27.00,OPEN,0
671296.603,0,1,0,1.000,1.000,1.000,-90.00,168.07,-27.00,OPEN,0
671296.608,0,1,0,1.000,1.000,1.000,-90.00,167.78,-27.00,OPEN,0
671296.613,0,1,0,1.000,1.000,1.000,-90.00,167.49,-27.00,OPEN,0
671296.618,0,1,0,1.000,1.000,1.000,-90.00,167.21,-27.00,OPEN,0
671296.622,0,1,0,1.000,1.000,1.000,-90.00,166.94,-27.00,OPEN,0
671296.626,0,1,0,1.000,1.000,1.000,-90.00,166.69,-27.00,OPEN,0
671296.631,0,1,0,1.000,1.000,1.000,-90.00,166.44,-27.00,OPEN,0
671296.635,0,1,0,1.000,1.000,1.000,-90.00,166.19,-27.00,OPEN,0
671296.639,0,1,0,1.000,1.000,1.000,-90.00,165.95,-27.00,OPEN,0
671296.643,0,1,0,1.000,1.000,1.000,-90.00,165.71,-27.00,OPEN,0
671296.647,0,1,0,1.000,1.000,1.000,-90.00,165.48,-27.00,OPEN,0
671296.651,0,1,0,1.000,1.000,1.000,-90.00,165.20,-27.00,OPEN,0
671296.656,0,1,0,1.000,1.000,1.000,-90.00,164.94,-27.00,OPEN,0
671296.660,0,1,0,1.000,1.000,1.000,-90.00,164.68,-27.00,OPEN,0
671296.664,0,1,0,1.000,1.000,1.000,-90.00,164.44,-27.00,OPEN,0
671296.669,0,1,0,1.000,1.000,1.000,-90.00,164.15,-27.00,OPEN,0
671296.673,0,1,0,1.000,1.000,1.000,-90.00,163.91,-27.00,OPEN,0
671296.677,0,1,0,1.000,1.000,1.000,-90.00,163.67,-27.00,OPEN,0
671296.681,0,1,0,1.000,1.000,1.000,-90.00,163.42,-27.00,OPEN,0
671296.685,0,1,0,1.000,1.000,1.000,-90.00,163.16,-27.00,OPEN,1
671296.689,0,1,0,1.000,1.000,1.000,-90.00,162.91,-27.00,OPEN,0
671296.694,0,1,0,1.000,1.000,1.000,-90.00,162.66,-27.00,OPEN,0
671296.698,0,1,0,1.000,1.000,1.000,-90.00,162.38,-27.00,OPEN,0
671296.703,0,1,0,1.000,1.000,1.000,-90.00,162.08,-27.00,OPEN,0
671296.708,0,1,0,1.000,1.000,1.000,-90.00,161.79,-27.00,OPEN,0
671296.712,0,1,0,1.000,1.000,1.000,-90.00,161.53,-27.00,OPEN,0
671296.717,0,1,0,1.000,1.000,1.000,-90.00,161.26,-27.00,OPEN,0
671296.721,0,1,0,1.000,1.000,1.000,-90.00,161.01,-27.00,OPEN,0
671296.725,0,1,0,1.000,1.000,1.000,-90.00,160.78,-27.00,OPEN,0
671296.729,0,1,0,1.000,1.000,1.000,-90.00,160.53,-27.00,OPEN,0
671296.733,0,1,0,1.000,1.000,1.000,-90.00,160.28,-27.00,OPEN,0
671296.737,0,1,0,1.000,1.000,1.000,-90.00,160.04,-27.00,OPEN,0
671296.741,0,1,0,1.000,1.000,1.000,-90.00,159.79,-27.00,OPEN,0
671296.745,0,1,0,1.000,1.000,1.000,-90.00,159.55,-27.00,OPEN,0
671296.750,0,1,0,1.000,1.000,1.000,-90.00,159.29,-27.00,OPEN,0
671296.754,0,1,0,1.000,1.000,1.000,-90.00,159.06,-27.00,OPEN,0
671296.757,0,1,0,1.000,1.000,1.000,-90.00,158.83,-27.00,OPEN,0
671296.762,0,1,0,1.000,1.000,1.000,-90.00,158.56,-27.00,OPEN,0
671296.766,0,1,0,1.000,1.000,1.000,-90.00,158.32,-27.00,OPEN,0
671296.770,0,1,0,1.000,1.000,1.000,-90.00,158.08,-27.00,OPEN,0
671296.774,0,1,0,1.000,1.000,1.000,-90.00,157.84,-27.00,OPEN,0
671296.778,0,1,0,1.000,1.000,1.000,-90.00,157.58,-27.00,OPEN,0
671296.782,0,1,0,1.000,1.000,1.000,-90.00,157.35,-27.00,OPEN,0
671296.786,0,1,0,1.000,1.000,1.000,-90.00,157.10,-27.00,OPEN,1
671296.790,0,1,0,1.000,1.000,1.000,-90.00,156.87,-27.00,OPEN,0
671296.794,0,1,0,1.000,1.000,1.000,-90.00,156.61,-27.00,OPEN,0
671296.799,0,1,0,1.000,1.000,1.000,-90.00,156.35,-27.00,OPEN,0
671296.803,0,1,0,1.000,1.000,1.000,-90.00,156.10,-27.00,OPEN,0
671296.807,0,1,0,1.000,1.000,1.000,-90.00,155.85,-27.00,OPEN,0
671296.811,0,1,0,1.000,1.000,1.000,-90.00,155.60,-27.00,OPEN,0
671296.816,0,1,0,1.000,1.000,1.000,-90.00,155.34,-27.00,OPEN,0
671296.820,0,1,0,1.000,1.000,1.000,-90.00,155.09,-27.00,OPEN,0
671296.824,0,1,0,1.000,1.000,1.000,-90.00,154.86,-27.00,OPEN,0
671296.828,0,1,0,1.000,1.000,1.000,-90.00,154.62,-27.00,OPEN,0
671296.832,0,1,0,1.000,1.000,1.000,-90.00,154.37,-27.00,OPEN,0
671296.836,0,1,0,1.000,1.000,1.000,-90.00,154.12,-27.00,OPEN,0
671296.840,0,1,0,1.000,1.000,1.000,-90.00,153.85,-27.00,OPEN,0
