t,hand,elbow,shoulder,p_hand,p_elbow,p_shoulder,J2,J3,J6,grip_state,cmd_sent
672415.153,0,0,0,0.805,1.000,1.000,-90.00,180.00,0.00,OPEN,0
672415.169,0,0,0,0.711,1.000,1.000,-90.00,180.00,0.00,OPEN,0
672415.174,0,0,0,0.996,1.000,1.000,-90.00,180.00,0.00,OPEN,0
672415.180,0,0,0,1.000,1.000,1.000,-90.00,180.00,0.00,OPEN,0
672415.184,0,0,0,1.000,1.000,1.000,-90.00,180.00,0.00,OPEN,0
672415.188,0,0,0,1.000,1.000,1.000,-90.00,180.00,0.00,OPEN,0
672415.191,0,0,0,1.000,1.000,1.000,-90.00,180.00,0.00,OPEN,0
672415.194,0,0,0,1.000,1.000,1.000,-90.00,180.00,0.00,OPEN,0
672415.198,0,0,0,1.000,1.000,1.000,-90.00,180.00,0.00,OPEN,0
672415.202,0,0,0,1.000,1.000,1.000,-90.00,180.00,0.00,OPEN,0
672415.206,0,0,0,1.000,1.000,1.000,-90.00,180.00,0.00,OPEN,0
672415.211,0,0,0,1.000,1.000,1.000,-90.00,180.00,0.00,OPEN,0
672415.215,0,0,0,1.000,1.000,1.000,-90.00,180.00,0.00,OPEN,0
672415.219,0,0,0,1.000,1.000,1.000,-90.00,180.00,0.00,OPEN,0
672415.223,0,0,0,1.000,1.000,1.000,-90.00,180.00,0.00,OPEN,0
672415.227,0,0,0,1.000,1.000,1.000,-90.00,180.00,0.00,OPEN,0
672415.230,0,0,0,1.000,1.000,1.000,-90.00,180.00,0.00,OPEN,0
672415.234,0,0,0,1.000,1.000,1.000,-90.00,180.00,0.00,OPEN,0
672415.238,0,0,0,1.000,1.000,1.000,-90.00,180.00,0.00,OPEN,0
672415.242,0,0,0,1.000,1.000,1.000,-90.00,180.00,0.00,OPEN,0
672415.246,0,0,0,1.000,1.000,1.000,-90.00,180.00,0.00,OPEN,0
672415.250,0,0,0,1.000,1.000,1.000,-90.00,180.00,0.00,OPEN,0
672415.254,0,0,0,1.000,1.000,1.000,-90.00,180.00,0.00,OPEN,0
672415.258,0,0,0,1.000,1.000,1.000,-90.00,180.00,0.00,OPEN,0
672415.262,0,0,0,1.000,1.000,1.000,-90.00,180.00,0.00,OPEN,0
672415.265,0,0,0,1.000,1.000,1.000,-90.00,180.00,0.00,OPEN,0
672415.269,0,0,0,1.000,1.000,1.000,-90.00,180.00,0.00,OPEN,0
672415.272,0,0,0,1.000,1.000,1.000,-90.00,180.00,0.00,OPEN,0
672415.276,0,0,0,1.000,1.000,1.000,-90.00,180.00,0.00,OPEN,0
672415.281,0,0,0,1.000,1.000,1.000,-90.00,180.00,0.00,OPEN,0
672415.285,0,0,0,1.000,1.000,1.000,-90.00,180.00,0.00,OPEN,0
672415.288,0,0,0,1.000,1.000,1.000,-90.00,180.00,0.00,OPEN,0
672415.292,0,0,0,1.000,1.000,1.000,-90.00,180.00,0.00,OPEN,0
672415.296,0,0,0,1.000,1.000,1.000,-90.00,180.00,0.00,OPEN,0
672415.300,0,0,0,1.000,1.000,1.000,-90.00,180.00,0.00,OPEN,0
672415.304,0,0,0,1.000,1.000,1.000,-90.00,180.00,0.00,OPEN,0
672415.309,0,0,0,1.000,1.000,1.000,-90.00,180.00,0.00,OPEN,0
672415.313,0,0,0,1.000,1.000,1.000,-90.00,180.00,0.00,OPEN,0
672415.319,0,0,0,1.000,1.000,1.000,-90.00,180.00,0.00,OPEN,0
672415.325,0,0,0,1.000,1.000,1.000,-90.00,180.00,0.00,OPEN,0
672415.331,0,0,0,1.000,1.000,1.000,-90.00,180.00,0.00,OPEN,0
672415.336,0,0,0,1.000,1.000,1.000,-90.00,180.00,0.00,OPEN,0
672415.340,0,0,0,1.000,1.000,1.000,-90.00,180.00,0.00,OPEN,0
672415.345,0,0,0,1.000,1.000,1.000,-90.00,180.00,0.00,OPEN,0
672415.348,0,0,0,1.000,1.000,1.000,-90.00,180.00,0.00,OPEN,0
672415.352,0,0,0,1.000,1.000,1.000,-90.00,180.00,0.00,OPEN,0
672415.357,0,0,0,1.000,1.000,1.000,-90.00,180.00,0.00,OPEN,0
672415.360,0,0,0,1.000,1.000,1.000,-90.00,180.00,0.00,OPEN,0
672415.364,0,0,0,1.000,1.000,1.000,-90.00,180.00,0.00,OPEN,0
672415.367,0,0,0,1.000,1.000,1.000,-90.00,180.00,0.00,OPEN,0
672415.372,0,0,0,1.000,1.000,1.000,-90.00,180.00,0.00,OPEN,0
672415.375,0,0,0,1.000,1.000,1.000,-90.00,180.00,0.00,OPEN,0
672415.379,0,0,0,1.000,1.000,1.000,-90.00,180.00,0.00,OPEN,0
672415.384,0,0,0,1.000,1.000,1.000,-90.00,180.00,0.00,OPEN,0
672415.391,0,0,0,1.000,1.000,1.000,-90.00,180.00,0.00,OPEN,0
672415.398,0,0,0,1.000,1.000,1.000,-90.00,180.00,0.00,OPEN,0
672415.407,0,0,0,1.000,1.000,1.000,-90.00,180.00,0.00,OPEN,0
672415.414,0,0,0,1.000,1.000,1.000,-90.00,180.00,0.00,OPEN,0
672415.422,0,0,0,1.000,1.000,1.000,-90.00,180.00,0.00,OPEN,0
672415.428,0,0,0,1.000,1.000,1.000,-90.00,180.00,0.00,OPEN,0
672415.434,0,0,0,1.000,1.000,1.000,-90.00,180.00,0.00,OPEN,0
672415.439,0,0,0,1.000,1.000,1.000,-90.00,180.00,0.00,OPEN,0
672415.444,0,0,0,1.000,1.000,1.000,-90.00,180.00,0.00,OPEN,0
672415.448,0,0,0,1.000,1.000,1.000,-90.00,180.00,0.00,OPEN,0
672415.452,0,0,0,1.000,1.000,1.000,-90.00,180.00,0.00,OPEN,0
672415.456,0,0,0,1.000,1.000,1.000,-90.00,180.00,0.00,OPEN,0
672415.459,0,0,0,1.000,1.000,1.000,-90.00,180.00,0.00,OPEN,0
672415.463,0,0,0,1.000,1.000,1.000,-90.00,180.00,0.00,OPEN,0
672415.468,0,0,0,1.000,1.000,1.000,-90.00,180.00,0.00,OPEN,0
672415.477,0,0,0,1.000,1.000,1.000,-90.00,180.00,0.00,OPEN,0
672415.487,0,0,0,1.000,1.000,1.000,-90.00,180.00,0.00,OPEN,0
672415.501,0,0,0,1.000,1.000,1.000,-90.00,180.00,0.00,OPEN,0
672415.509,0,0,0,1.000,1.000,1.000,-90.00,180.00,0.00,OPEN,0
672415.518,0,0,0,1.000,1.000,1.000,-90.00,180.00,0.00,OPEN,0
672415.525,0,0,0,1.000,1.000,1.000,-90.00,180.00,0.00,OPEN,0
672415.531,0,0,0,1.000,1.000,1.000,-90.00,180.00,0.00,OPEN,0
672415.536,0,0,0,1.000,1.000,1.000,-90.00,180.00,0.00,OPEN,0
672415.542,0,0,0,1.000,1.000,1.000,-90.00,180.00,0.00,OPEN,0
672415.547,0,0,0,1.000,1.000,1.000,-90.00,180.00,0.00,OPEN,0
672415.552,0,0,0,1.000,1.000,1.000,-90.00,180.00,0.00,OPEN,0
672415.555,0,0,0,1.000,1.000,1.000,-90.00,180.00,0.00,OPEN,0
672415.559,0,0,0,1.000,1.000,1.000,-90.00,180.00,0.00,OPEN,0
672415.563,0,0,0,1.000,1.000,1.000,-90.00,180.00,0.00,OPEN,0
672415.567,0,0,0,1.000,1.000,1.000,-90.00,180.00,0.00,OPEN,0
672415.571,0,0,0,1.000,1.000,1.000,-90.00,180.00,0.00,OPEN,0
672415.576,0,0,0,1.000,1.000,1.000,-90.00,180.00,0.00,OPEN,0
672415.580,0,0,0,1.000,1.000,1.000,-90.00,180.00,0.00,OPEN,0
672415.585,0,0,0,1.000,1.000,1.000,-90.00,180.00,0.00,OPEN,0
672415.589,0,0,0,1.000,1.000,1.000,-90.00,180.00,0.00,OPEN,0
672415.593,0,0,0,1.000,1.000,1.000,-90.00,180.00,0.00,OPEN,0
672415.598,0,0,0,1.000,1.000,1.000,-90.00,180.00,0.00,OPEN,0
672415.601,0,0,0,1.000,1.000,1.000,-90.00,180.00,0.00,OPEN,0
672415.605,0,0,0,1.000,1.000,1.000,-90.00,180.00,0.00,OPEN,0
672415.609,0,0,0,1.000,1.000,1.000,-90.00,180.00,0.00,OPEN,0
672415.613,0,0,0,1.000,1.000,1.000,-90.00,180.00,0.00,OPEN,0
672415.616,0,0,0,1.000,1.000,1.000,-90.00,180.00,0.00,OPEN,0
672415.620,0,0,0,1.000,1.000,1.000,-90.00,180.00,0.00,OPEN,0
672415.624,0,0,0,1.000,1.000,1.000,-90.00,180.00,0.00,OPEN,0
672415.628,0,0,0,1.000,1.000,1.000,-90.00,180.00,0.00,OPEN,0
672415.631,0,0,0,1.000,1.000,1.000,-90.00,180.00,0.00,OPEN,0
672415.635,0,0,0,1.000,1.000,1.000,-90.00,180.00,0.00,OPEN,0
672415.639,0,0,0,1.000,1.000,1.000,-90.00,180.00,0.00,OPEN,0
672415.642,0,0,0,1.000,1.000,1.000,-90.00,180.00,0.00,OPEN,0
672415.646,0,0,0,1.000,1.000,1.000,-90.00,180.00,0.00,OPEN,0
672415.650,0,0,0,1.000,0.999,1.000,-90.00,180.00,0.00,OPEN,0
672415.654,0,0,0,1.000,0.997,1.000,-90.00,180.00,0.00,OPEN,0
672415.658,0,0,0,1.000,0.994,1.000,-90.00,180.00,0.00,OPEN,0
672415.663,0,0,0,1.000,0.998,1.000,-90.00,180.00,0.00,OPEN,0
672415.667,0,0,0,1.000,0.999,1.000,-90.00,180.00,0.00,OPEN,0
672415.671,0,0,0,1.000,1.000,1.000,-90.00,180.00,0.00,OPEN,0
672415.677,0,0,0,1.000,1.000,1.000,-90.00,180.00,0.00,OPEN,0
672415.683,0,0,0,1.000,1.000,1.000,-90.00,180.00,0.00,OPEN,0
672415.688,0,0,0,1.000,1.000,1.000,-90.00,180.00,0.00,OPEN,0
672415.693,0,0,0,1.000,1.000,1.000,-90.00,180.00,0.00,OPEN,0
672415.698,0,0,0,1.000,1.000,1.000,-90.00,180.00,0.00,OPEN,0
672415.702,0,0,0,1.000,1.000,1.000,-90.00,180.00,0.00,OPEN,0
672415.706,0,0,0,1.000,1.000,1.000,-90.00,180.00,0.00,OPEN,0
672415.710,0,0,0,1.000,1.000,1.000,-90.00,180.00,0.00,OPEN,0
672415.714,0,0,0,0.540,1.000,1.000,-90.00,180.00,0.00,OPEN,0
672415.719,0,0,0,0.866,1.000,1.000,-90.00,180.00,0.00,OPEN,0
672415.723,0,0,0,0.570,1.000,1.000,-90.00,180.00,0.00,OPEN,0
672415.727,0,0,0,0.697,1.000,1.000,-90.00,180.00,0.00,OPEN,0
672415.732,0,0,0,0.604,1.000,1.000,-90.00,180.00,0.00,OPEN,0
672415.736,0,0,0,0.676,1.000,1.000,-90.00,180.00,0.00,OPEN,0
672415.740,0,0,0,0.688,1.000,1.000,-90.00,180.00,0.00,OPEN,0
672415.744,0,0,0,0.960,1.000,1.000,-90.00,180.00,0.00,OPEN,0
672415.747,0,0,0,1.000,1.000,1.000,-90.00,180.00,0.00,OPEN,0
672415.752,0,0,0,1.000,1.000,1.000,-90.00,180.00,0.00,OPEN,0
672415.758,1,0,0,1.000,1.000,1.000,-90.00,180.00,4.50,OPEN,1
672415.765,0,0,0,1.000,1.000,1.000,-90.00,180.00,4.50,OPEN,0
672415.770,0,0,0,1.000,1.000,1.000,-90.00,180.00,4.50,OPEN,0
672415.775,0,0,0,1.000,1.000,1.000,-90.00,180.00,4.50,OPEN,0
672415.779,0,0,0,1.000,1.000,1.000,-90.00,180.00,4.50,OPEN,0
672415.783,0,0,0,1.000,1.000,1.000,-90.00,180.00,4.50,OPEN,0
672415.787,0,0,0,1.000,1.000,1.000,-90.00,180.00,4.50,OPEN,0
672415.791,0,0,0,1.000,1.000,1.000,-90.00,180.00,4.50,OPEN,0
672415.795,0,0,0,1.000,1.000,1.000,-90.00,180.00,4.50,OPEN,0
672415.798,0,0,0,1.000,1.000,1.000,-90.00,180.00,4.50,OPEN,0
672415.802,0,0,0,1.000,1.000,1.000,-90.00,180.00,4.50,OPEN,0
672415.806,0,0,0,1.000,1.000,1.000,-90.00,180.00,4.50,OPEN,0
672415.810,0,0,0,1.000,1.000,1.000,-90.00,180.00,4.50,OPEN,0
672415.813,0,0,0,1.000,1.000,1.000,-90.00,180.00,4.50,OPEN,0
672415.817,0,0,0,1.000,1.000,1.000,-90.00,180.00,4.50,OPEN,0
672415.821,0,0,0,1.000,1.000,1.000,-90.00,180.00,4.50,OPEN,0
672415.824,0,0,0,1.000,1.000,1.000,-90.00,180.00,4.50,OPEN,0
672415.828,0,0,0,1.000,1.000,1.000,-90.00,180.00,4.50,OPEN,0
672415.832,0,0,0,1.000,1.000,1.000,-90.00,180.00,4.50,OPEN,0
672415.836,0,0,0,1.000,1.000,1.000,-90.00,180.00,4.50,OPEN,0
672415.839,0,0,0,1.000,1.000,1.000,-90.00,180.00,4.50,OPEN,0
672415.843,0,0,0,1.000,1.000,1.000,-90.00,180.00,4.50,OPEN,0
672415.847,0,0,0,1.000,1.000,1.000,-90.00,180.00,4.50,OPEN,0
672415.851,0,0,0,1.000,1.000,1.000,-90.00,180.00,4.50,OPEN,0
672415.855,0,0,0,1.000,1.000,1.000,-90.00,180.00,4.50,OPEN,0
672415.860,0,0,0,0.999,1.000,1.000,-90.00,180.00,4.50,OPEN,0
672415.864,0,0,0,1.000,1.000,1.000,-90.00,180.00,4.50,OPEN,0
672415.868,0,0,0,1.000,1.000,1.000,-90.00,180.00,4.50,OPEN,0
672415.872,0,0,0,1.000,1.000,1.000,-90.00,180.00,4.50,OPEN,0
672415.876,0,0,0,1.000,1.000,1.000,-90.00,180.00,4.50,OPEN,0
672415.882,0,0,0,1.000,1.000,1.000,-90.00,180.00,4.50,OPEN,0
672415.886,0,0,0,1.000,1.000,1.000,-90.00,180.00,4.50,OPEN,0
672415.890,0,0,0,1.000,1.000,1.000,-90.00,180.00,4.50,OPEN,0
672415.894,0,0,0,1.000,1.000,1.000,-90.00,180.00,4.50,OPEN,0
672415.898,0,0,0,1.000,1.000,1.000,-90.00,180.00,4.50,OPEN,0
672415.903,0,0,0,1.000,1.000,1.000,-90.00,180.00,4.50,OPEN,0
672415.909,0,0,0,1.000,1.000,1.000,-90.00,180.00,4.50,OPEN,0
672415.914,0,0,0,1.000,1.000,1.000,-90.00,180.00,4.50,OPEN,0
672415.920,0,0,0,1.000,1.000,1.000,-90.00,180.00,4.50,OPEN,0
672415.925,0,0,0,1.000,1.000,1.000,-90.00,180.00,4.50,OPEN,0
672415.929,0,0,0,1.000,1.000,1.000,-90.00,180.00,4.50,OPEN,0
672415.934,0,0,0,1.000,1.000,1.000,-90.00,180.00,4.50,OPEN,0
672415.939,0,0,0,1.000,1.000,1.000,-90.00,180.00,4.50,OPEN,0
672415.943,0,0,0,1.000,1.000,1.000,-90.00,180.00,4.50,OPEN,0
672415.947,0,0,0,0.999,1.000,1.000,-90.00,180.00,4.50,OPEN,0
672415.951,0,0,0,1.000,1.000,1.000,-90.00,180.00,4.50,OPEN,0
672415.954,0,0,0,1.000,1.000,1.000,-90.00,180.00,4.50,OPEN,0
672415.958,0,0,0,1.000,1.000,1.000,-90.00,180.00,4.50,OPEN,0
672415.962,0,0,0,1.000,1.000,1.000,-90.00,180.00,4.50,OPEN,0
672415.967,0,0,0,1.000,1.000,1.000,-90.00,180.00,4.50,OPEN,0
672415.973,0,0,0,1.000,1.000,1.000,-90.00,180.00,4.50,OPEN,0
672415.979,0,0,0,1.000,1.000,1.000,-90.00,180.00,4.50,OPEN,0
672415.984,0,0,0,1.000,1.000,1.000,-90.00,180.00,4.50,OPEN,0
672415.990,0,0,0,1.000,1.000,1.000,-90.00,180.00,4.50,OPEN,0
672415.995,0,0,0,1.000,1.000,1.000,-90.00,180.00,4.50,OPEN,0
672415.999,0,0,0,1.000,1.000,1.000,-90.00,180.00,4.50,OPEN,0
672416.004,0,0,0,1.000,1.000,1.000,-90.00,180.00,4.50,OPEN,0
672416.008,0,0,0,1.000,1.000,1.000,-90.00,180.00,4.50,OPEN,0
672416.012,0,0,0,1.000,1.000,1.000,-90.00,180.00,4.50,OPEN,0
672416.016,0,0,0,0.999,1.000,1.000,-90.00,180.00,4.50,OPEN,0
672416.020,0,0,0,1.000,1.000,1.000,-90.00,180.00,4.50,OPEN,0
672416.024,0,0,0,1.000,1.000,1.000,-90.00,180.00,4.50,OPEN,0
672416.028,0,0,0,1.000,1.000,1.000,-90.00,180.00,4.50,OPEN,0
672416.032,0,0,0,1.000,1.000,1.000,-90.00,180.00,4.50,OPEN,0
672416.036,0,0,0,1.000,1.000,1.000,-90.00,180.00,4.50,OPEN,0
672416.040,0,0,0,1.000,1.000,1.000,-90.00,180.00,4.50,OPEN,0
672416.044,0,0,0,1.000,1.000,1.000,-90.00,180.00,4.50,OPEN,0
672416.049,0,0,0,1.000,1.000,1.000,-90.00,180.00,4.50,OPEN,0
672416.053,0,0,0,1.000,1.000,1.000,-90.00,180.00,4.50,OPEN,0
672416.057,0,0,0,1.000,1.000,1.000,-90.00,180.00,4.50,OPEN,0
672416.061,0,0,0,1.000,1.000,1.000,-90.00,180.00,4.50,OPEN,0
672416.065,0,0,0,1.000,1.000,1.000,-90.00,180.00,4.50,OPEN,0
672416.069,0,0,0,1.000,1.000,1.000,-90.00,180.00,4.50,OPEN,0
672416.073,0,0,0,1.000,1.000,1.000,-90.00,180.00,4.50,OPEN,0
672416.077,0,0,0,1.000,1.000,1.000,-90.00,180.00,4.50,OPEN,0
672416.081,0,0,0,1.000,1.000,1.000,-90.00,180.00,4.50,OPEN,0
672416.086,0,0,0,1.000,1.000,1.000,-90.00,180.00,4.50,OPEN,0
672416.090,0,0,0,1.000,1.000,1.000,-90.00,180.00,4.50,OPEN,0
672416.094,0,0,0,1.000,1.000,1.000,-90.00,180.00,4.50,OPEN,0
672416.099,0,0,0,1.000,1.000,1.000,-90.00,180.00,4.50,OPEN,0
672416.104,0,0,0,1.000,1.000,1.000,-90.00,180.00,4.50,OPEN,0
672416.108,0,0,0,1.000,1.000,1.000,-90.00,180.00,4.50,OPEN,0
672416.111,0,0,0,1.000,1.000,1.000,-90.00,180.00,4.50,OPEN,0
672416.115,0,0,0,1.000,1.000,1.000,-90.00,180.00,4.50,OPEN,0
672416.119,0,0,0,1.000,1.000,1.000,-90.00,180.00,4.50,OPEN,0
672416.122,0,0,0,1.000,1.000,1.000,-90.00,180.00,4.50,OPEN,0
672416.126,0,0,0,1.000,1.000,1.000,-90.00,180.00,4.50,OPEN,0
672416.131,0,0,0,1.000,1.000,1.000,-90.00,180.00,4.50,OPEN,0
672416.135,0,0,0,1.000,1.000,1.000,-90.00,180.00,4.50,OPEN,0
672416.139,0,0,0,1.000,1.000,1.000,-90.00,180.00,4.50,OPEN,0
672416.142,0,0,0,1.000,1.000,1.000,-90.00,180.00,4.50,OPEN,0
672416.146,0,0,0,1.000,1.000,1.000,-90.00,180.00,4.50,OPEN,0
672416.150,0,0,0,1.000,1.000,1.000,-90.00,180.00,4.50,OPEN,0
672416.155,0,0,0,1.000,1.000,1.000,-90.00,180.00,4.50,OPEN,0
672416.159,0,0,0,1.000,1.000,1.000,-90.00,180.00,4.50,OPEN,0
672416.163,0,0,0,1.000,1.000,1.000,-90.00,180.00,4.50,OPEN,0
672416.168,0,0,0,1.000,1.000,1.000,-90.00,180.00,4.50,OPEN,0
672416.172,0,0,0,1.000,1.000,1.000,-90.00,180.00,4.50,OPEN,0
672416.176,0,0,0,1.000,1.000,1.000,-90.00,180.00,4.50,OPEN,0
672416.181,0,0,0,1.000,1.000,1.000,-90.00,180.00,4.50,OPEN,0
672416.185,0,0,0,1.000,1.000,1.000,-90.00,180.00,4.50,OPEN,0
672416.189,0,0,0,1.000,1.000,1.000,-90.00,180.00,4.50,OPEN,0
672416.193,0,0,0,1.000,1.000,1.000,-90.00,180.00,4.50,OPEN,0
672416.197,0,0,0,1.000,1.000,1.000,-90.00,180.00,4.50,OPEN,0
672416.201,0,0,0,1.000,1.000,1.000,-90.00,180.00,4.50,OPEN,0
672416.206,0,0,0,1.000,1.000,1.000,-90.00,180.00,4.50,OPEN,0
672416.211,0,0,0,1.000,1.000,1.000,-90.00,180.00,4.50,OPEN,0
672416.215,0,0,0,1.000,1.000,1.000,-90.00,180.00,4.50,OPEN,0
672416.219,0,0,0,1.000,1.000,1.000,-90.00,180.00,4.50,OPEN,0
672416.223,0,0,0,1.000,1.000,1.000,-90.00,180.00,4.50,OPEN,0
672416.227,0,0,0,1.000,1.000,1.000,-90.00,180.00,4.50,OPEN,0
672416.230,0,0,0,1.000,1.000,1.000,-90.00,180.00,4.50,OPEN,0
672416.234,0,0,0,1.000,1.000,1.000,-90.00,180.00,4.50,OPEN,0
672416.238,0,0,0,1.000,1.000,1.000,-90.00,180.00,4.50,OPEN,0
672416.241,0,0,0,1.000,1.000,1.000,-90.00,180.00,4.50,OPEN,0
672416.245,0,0,0,1.000,1.000,1.000,-90.00,180.00,4.50,OPEN,0
672416.248,0,0,0,1.000,1.000,1.000,-90.00,180.00,4.50,OPEN,0
672416.252,0,0,0,1.000,1.000,1.000,-90.00,180.00,4.50,OPEN,0
672416.256,0,0,0,1.000,1.000,1.000,-90.00,180.00,4.50,OPEN,0
672416.260,0,0,0,1.000,1.000,1.000,-90.00,180.00,4.50,OPEN,0
672416.264,0,0,0,1.000,1.000,1.000,-90.00,180.00,4.50,OPEN,0
672416.267,0,0,0,1.000,1.000,1.000,-90.00,180.00,4.50,OPEN,0
672416.271,0,0,0,1.000,1.000,1.000,-90.00,180.00,4.50,OPEN,0
672416.275,0,0,0,1.000,1.000,1.000,-90.00,180.00,4.50,OPEN,0
672416.278,0,0,0,1.000,1.000,1.000,-90.00,180.00,4.50,OPEN,0
672416.282,0,0,0,1.000,1.000,1.000,-90.00,180.00,4.50,OPEN,0
672416.286,0,0,0,1.000,1.000,1.000,-90.00,180.00,4.50,OPEN,0
672416.290,0,0,0,1.000,1.000,1.000,-90.00,180.00,4.50,OPEN,0
672416.294,0,0,0,1.000,1.000,1.000,-90.00,180.00,4.50,OPEN,0
672416.298,0,0,0,1.000,1.000,1.000,-90.00,180.00,4.50,OPEN,0
672416.301,0,0,0,1.000,1.000,1.000,-90.00,180.00,4.50,OPEN,0
672416.305,0,0,0,1.000,1.000,1.000,-90.00,180.00,4.50,OPEN,0
672416.308,0,0,0,1.000,1.000,1.000,-90.00,180.00,4.50,OPEN,0
672416.313,0,0,0,1.000,1.000,1.000,-90.00,180.00,4.50,OPEN,0
672416.318,0,0,0,0.999,1.000,1.000,-90.00,180.00,4.50,OPEN,0
672416.323,0,0,0,0.866,1.000,1.000,-90.00,180.00,4.50,OPEN,0
672416.328,0,0,0,0.663,1.000,1.000,-90.00,180.00,4.50,OPEN,0
672416.333,0,0,0,0.938,1.000,1.000,-90.00,180.00,4.50,OPEN,0
672416.339,0,0,0,0.994,1.000,1.000,-90.00,180.00,4.50,OPEN,0
672416.343,0,0,0,0.999,1.000,1.000,-90.00,180.00,4.50,OPEN,0
672416.347,0,0,0,1.000,1.000,1.000,-90.00,180.00,4.50,OPEN,0
672416.351,0,0,0,1.000,1.000,1.000,-90.00,180.00,4.50,OPEN,0
672416.355,0,0,0,1.000,1.000,1.000,-90.00,180.00,4.50,OPEN,0
672416.359,0,0,0,1.000,1.000,1.000,-90.00,180.00,4.50,OPEN,0
672416.363,0,0,0,1.000,1.000,1.000,-90.00,180.00,4.50,OPEN,0
672416.367,2,0,0,1.000,1.000,1.000,-90.00,180.00,0.00,OPEN,1
672416.371,2,0,0,1.000,1.000,1.000,-90.00,180.00,0.00,OPEN,0
672416.375,2,0,0,1.000,1.000,1.000,-90.00,180.00,0.00,OPEN,0
672416.378,2,0,0,1.000,1.000,1.000,-90.00,180.00,0.00,OPEN,0
672416.381,2,0,0,1.000,1.000,1.000,-90.00,180.00,0.00,OPEN,0
672416.386,2,0,0,1.000,1.000,1.000,-90.00,180.00,0.00,OPEN,0
672416.390,2,0,0,1.000,1.000,1.000,-90.00,180.00,0.00,OPEN,0
672416.394,2,0,0,1.000,1.000,1.000,-90.00,180.00,0.00,OPEN,0
672416.399,2,0,0,1.000,1.000,1.000,-90.00,180.00,0.00,OPEN,0
672416.404,2,0,0,1.000,1.000,1.000,-90.00,180.00,0.00,OPEN,0
672416.409,2,0,0,1.000,1.000,1.000,-90.00,180.00,0.00,OPEN,0
672416.413,2,0,0,1.000,1.000,1.000,-90.00,180.00,0.00,OPEN,0
672416.418,2,0,0,1.000,1.000,1.000,-90.00,180.00,0.00,OPEN,0
672416.422,2,0,0,1.000,1.000,1.000,-90.00,180.00,0.00,OPEN,0
672416.426,2,0,0,1.000,1.000,1.000,-90.00,180.00,0.00,OPEN,0
672416.430,2,0,0,1.000,1.000,1.000,-90.00,180.00,0.00,OPEN,0
672416.434,2,0,0,1.000,1.000,1.000,-90.00,180.00,0.00,OPEN,0
672416.438,2,0,0,1.000,1.000,1.000,-90.00,180.00,0.00,OPEN,0
672416.441,2,0,0,1.000,1.000,1.000,-90.00,180.00,0.00,OPEN,0
672416.446,2,0,0,1.000,1.000,1.000,-90.00,180.00,0.00,OPEN,0
672416.450,2,0,0,1.000,1.000,1.000,-90.00,180.00,0.00,OPEN,0
672416.454,2,0,0,1.000,1.000,1.000,-90.00,180.00,0.00,OPEN,0
672416.457,2,0,0,1.000,1.000,1.000,-90.00,180.00,0.00,OPEN,0
672416.461,2,0,0,1.000,1.000,1.000,-90.00,180.00,0.00,OPEN,0
672416.465,2,0,0,1.000,1.000,1.000,-90.00,180.00,0.00,OPEN,0
672416.470,2,0,0,1.000,1.000,1.000,-90.00,180.00,-4.50,OPEN,1
672416.474,2,0,0,1.000,1.000,1.000,-90.00,180.00,-4.50,OPEN,0
672416.478,2,0,0,1.000,1.000,1.000,-90.00,180.00,-4.50,OPEN,0
672416.483,2,0,0,1.000,1.000,1.000,-90.00,180.00,-4.50,OPEN,0
672416.487,2,0,0,1.000,1.000,1.000,-90.00,180.00,-4.50,OPEN,0
672416.490,2,0,0,1.000,1.000,1.000,-90.00,180.00,-4.50,OPEN,0
672416.494,2,0,0,1.000,1.000,1.000,-90.00,180.00,-4.50,OPEN,0
672416.498,2,0,0,1.000,1.000,1.000,-90.00,180.00,-4.50,OPEN,0
672416.502,2,0,0,1.000,1.000,1.000,-90.00,180.00,-4.50,OPEN,0
672416.506,2,0,0,1.000,1.000,1.000,-90.00,180.00,-4.50,OPEN,0
672416.509,2,0,0,1.000,1.000,1.000,-90.00,180.00,-4.50,OPEN,0
672416.513,2,0,0,1.000,1.000,1.000,-90.00,180.00,-4.50,OPEN,0
672416.517,2,0,0,1.000,1.000,1.000,-90.00,180.00,-4.50,OPEN,0
672416.520,2,0,0,1.000,1.000,1.000,-90.00,180.00,-4.50,OPEN,0
672416.524,2,0,0,1.000,1.000,1.000,-90.00,180.00,-4.50,OPEN,0
672416.528,2,0,0,1.000,1.000,1.000,-90.00,180.00,-4.50,OPEN,0
672416.532,2,0,0,1.000,1.000,1.000,-90.00,180.00,-4.50,OPEN,0
672416.536,2,0,0,1.000,1.000,1.000,-90.00,180.00,-4.50,OPEN,0
672416.539,2,0,0,1.000,1.000,1.000,-90.00,180.00,-4.50,OPEN,0
672416.544,2,0,0,1.000,1.000,1.000,-90.00,180.00,-4.50,OPEN,0
672416.548,2,0,0,1.000,1.000,1.000,-90.00,180.00,-4.50,OPEN,0
672416.553,2,0,0,1.000,1.000,1.000,-90.00,180.00,-4.50,OPEN,0
672416.557,2,0,0,1.000,1.000,1.000,-90.00,180.00,-4.50,OPEN,0
672416.561,2,0,0,1.000,1.000,1.000,-90.00,180.00,-4.50,OPEN,0
672416.565,2,0,0,1.000,1.000,1.000,-90.00,180.00,-4.50,OPEN,0
672416.569,2,0,0,1.000,1.000,1.000,-90.00,180.00,-4.50,OPEN,0
672416.573,2,0,0,1.000,1.000,1.000,-90.00,180.00,-9.00,OPEN,1
672416.578,2,0,0,1.000,1.000,1.000,-90.00,180.00,-9.00,OPEN,0
672416.582,2,0,0,1.000,1.000,1.000,-90.00,180.00,-9.00,OPEN,0
672416.587,2,0,0,1.000,1.000,1.000,-90.00,180.00,-9.00,OPEN,0
672416.591,2,0,0,1.000,1.000,1.000,-90.00,180.00,-9.00,OPEN,0
672416.595,2,0,0,1.000,1.000,1.000,-90.00,180.00,-9.00,OPEN,0
672416.600,2,0,0,1.000,1.000,1.000,-90.00,180.00,-9.00,OPEN,0
672416.603,2,0,0,1.000,1.000,1.000,-90.00,180.00,-9.00,OPEN,0
672416.607,2,0,0,1.000,1.000,1.000,-90.00,180.00,-9.00,OPEN,0
672416.611,2,0,0,1.000,1.000,1.000,-90.00,180.00,-9.00,OPEN,0
672416.615,2,0,0,1.000,1.000,1.000,-90.00,180.00,-9.00,OPEN,0
672416.619,2,0,0,1.000,1.000,1.000,-90.00,180.00,-9.00,OPEN,0
672416.623,2,0,0,1.000,1.000,1.000,-90.00,180.00,-9.00,OPEN,0
672416.626,2,0,0,1.000,1.000,1.000,-90.00,180.00,-9.00,OPEN,0
672416.630,2,0,0,1.000,1.000,1.000,-90.00,180.00,-9.00,OPEN,0
672416.634,2,0,0,1.000,1.000,1.000,-90.00,180.00,-9.00,OPEN,0
672416.637,2,0,0,1.000,1.000,1.000,-90.00,180.00,-9.00,OPEN,0
672416.641,2,0,0,1.000,1.000,1.000,-90.00,180.00,-9.00,OPEN,0
672416.645,2,0,0,1.000,1.000,1.000,-90.00,180.00,-9.00,OPEN,0
672416.650,2,0,0,1.000,1.000,1.000,-90.00,180.00,-9.00,OPEN,0
672416.654,2,0,0,1.000,1.000,1.000,-90.00,180.00,-9.00,OPEN,0
672416.658,2,0,0,1.000,1.000,1.000,-90.00,180.00,-9.00,OPEN,0
672416.662,2,0,0,1.000,1.000,1.000,-90.00,180.00,-9.00,OPEN,0
672416.666,2,0,0,1.000,1.000,1.000,-90.00,180.00,-9.00,OPEN,0
672416.670,2,0,0,1.000,1.000,1.000,-90.00,180.00,-9.00,OPEN,0
672416.673,2,0,0,1.000,1.000,1.000,-90.00,180.00,-13.50,OPEN,1
672416.677,2,0,0,1.000,1.000,1.000,-90.00,180.00,-13.50,OPEN,0
672416.681,2,0,0,1.000,1.000,1.000,-90.00,180.00,-13.50,OPEN,0
672416.685,2,0,0,1.000,1.000,1.000,-90.00,180.00,-13.50,OPEN,0
672416.688,2,0,0,1.000,1.000,1.000,-90.00,180.00,-13.50,OPEN,0
672416.692,2,0,0,1.000,1.000,1.000,-90.00,180.00,-13.50,OPEN,0
672416.696,2,0,0,1.000,1.000,1.000,-90.00,180.00,-13.50,OPEN,0
672416.701,2,0,0,1.000,1.000,1.000,-90.00,180.00,-13.50,OPEN,0
672416.705,2,0,0,1.000,1.000,1.000,-90.00,180.00,-13.50,OPEN,0
672416.710,2,0,0,1.000,1.000,1.000,-90.00,180.00,-13.50,OPEN,0
672416.715,2,0,0,1.000,1.000,1.000,-90.00,180.00,-13.50,OPEN,0
672416.720,2,0,0,1.000,1.000,1.000,-90.00,180.00,-13.50,OPEN,0
672416.725,2,0,0,1.000,1.000,1.000,-90.00,180.00,-13.50,OPEN,0
672416.729,2,0,0,1.000,1.000,1.000,-90.00,180.00,-13.50,OPEN,0
672416.733,2,0,0,1.000,1.000,1.000,-90.00,180.00,-13.50,OPEN,0
672416.737,2,0,0,1.000,1.000,1.000,-90.00,180.00,-13.50,OPEN,0
672416.740,2,0,0,1.000,1.000,1.000,-90.00,180.00,-13.50,OPEN,0
672416.744,2,0,0,1.000,1.000,1.000,-90.00,180.00,-13.50,OPEN,0
672416.748,2,0,0,1.000,1.000,1.000,-90.00,180.00,-13.50,OPEN,0
672416.752,2,0,0,1.000,1.000,1.000,-90.00,180.00,-13.50,OPEN,0
672416.756,2,0,0,1.000,1.000,1.000,-90.00,180.00,-13.50,OPEN,0
672416.760,2,0,0,1.000,1.000,1.000,-90.00,180.00,-13.50,OPEN,0
672416.764,2,0,0,1.000,1.000,1.000,-90.00,180.00,-13.50,OPEN,0
672416.768,2,0,0,1.000,1.000,1.000,-90.00,180.00,-13.50,OPEN,0
672416.772,2,0,0,1.000,1.000,1.000,-90.00,180.00,-13.50,OPEN,0
672416.775,2,0,0,1.000,1.000,1.000,-90.00,180.00,-18.00,OPEN,1
672416.779,2,0,0,1.000,1.000,1.000,-90.00,180.00,-18.00,OPEN,0
672416.783,2,0,0,1.000,1.000,1.000,-90.00,180.00,-18.00,OPEN,0
672416.788,2,0,0,1.000,1.000,1.000,-90.00,180.00,-18.00,OPEN,0
672416.791,2,0,0,1.000,1.000,1.000,-90.00,180.00,-18.00,OPEN,0
672416.795,2,0,0,1.000,1.000,1.000,-90.00,180.00,-18.00,OPEN,0
672416.799,2,0,0,1.000,1.000,1.000,-90.00,180.00,-18.00,OPEN,0
672416.803,2,0,0,1.000,1.000,1.000,-90.00,180.00,-18.00,OPEN,0
672416.807,2,0,0,1.000,1.000,1.000,-90.00,180.00,-18.00,OPEN,0
672416.810,2,0,0,1.000,1.000,1.000,-90.00,180.00,-18.00,OPEN,0
672416.814,2,0,0,1.000,1.000,1.000,-90.00,180.00,-18.00,OPEN,0
672416.818,2,0,0,1.000,1.000,1.000,-90.00,180.00,-18.00,OPEN,0
672416.822,2,0,0,1.000,1.000,1.000,-90.00,180.00,-18.00,OPEN,0
672416.826,2,0,0,1.000,1.000,1.000,-90.00,180.00,-18.00,OPEN,0
672416.829,2,0,0,0.999,1.000,1.000,-90.00,180.00,-18.00,OPEN,0
672416.833,2,0,0,0.968,1.000,1.000,-90.00,180.00,-18.00,OPEN,0
672416.837,2,0,0,0.730,1.000,1.000,-90.00,180.00,-18.00,OPEN,0
672416.841,2,0,0,0.954,1.000,1.000,-90.00,180.00,-18.00,OPEN,0
672416.845,2,0,0,0.989,1.000,1.000,-90.00,180.00,-18.00,OPEN,0
672416.849,2,0,0,0.992,1.000,1.000,-90.00,180.00,-18.00,OPEN,0
672416.853,2,0,0,0.988,1.000,1.000,-90.00,180.00,-18.00,OPEN,0
672416.857,2,0,0,0.986,1.000,1.000,-90.00,180.00,-18.00,OPEN,0
672416.861,2,0,0,0.980,1.000,1.000,-90.00,180.00,-18.00,OPEN,0
672416.865,2,0,0,0.875,1.000,1.000,-90.00,180.00,-18.00,OPEN,0
672416.869,2,0,0,0.922,1.000,1.000,-90.00,180.00,-18.00,OPEN,0
672416.874,2,0,0,1.000,1.000,1.000,-90.00,180.00,-18.00,OPEN,0
672416.878,2,0,0,1.000,1.000,1.000,-90.00,180.00,-22.50,OPEN,1
672416.884,2,0,0,1.000,1.000,1.000,-90.00,180.00,-22.50,OPEN,0
672416.889,2,0,0,1.000,1.000,1.000,-90.00,180.00,-22.50,OPEN,0
672416.893,2,0,0,1.000,1.000,1.000,-90.00,180.00,-22.50,OPEN,0
672416.897,2,0,0,1.000,1.000,1.000,-90.00,180.00,-22.50,OPEN,0
672416.902,0,0,0,1.000,1.000,1.000,-90.00,180.00,-22.50,OPEN,0
672416.906,0,0,0,1.000,1.000,1.000,-90.00,180.00,-22.50,OPEN,0
672416.910,0,0,0,1.000,1.000,1.000,-90.00,180.00,-22.50,OPEN,0
672416.914,0,0,0,1.000,1.000,1.000,-90.00,180.00,-22.50,OPEN,0
672416.918,0,0,0,1.000,1.000,1.000,-90.00,180.00,-22.50,OPEN,0
672416.921,0,0,0,1.000,1.000,1.000,-90.00,180.00,-22.50,OPEN,0
672416.925,0,0,0,1.000,1.000,1.000,-90.00,180.00,-22.50,OPEN,0
672416.929,0,0,0,1.000,1.000,1.000,-90.00,180.00,-22.50,OPEN,0
672416.933,0,0,0,1.000,1.000,1.000,-90.00,180.00,-22.50,OPEN,0
672416.937,0,0,0,1.000,1.000,1.000,-90.00,180.00,-22.50,OPEN,0
672416.940,0,0,0,1.000,1.000,1.000,-90.00,180.00,-22.50,OPEN,0
672416.945,0,0,0,1.000,1.000,1.000,-90.00,180.00,-22.50,OPEN,0
672416.950,0,0,0,1.000,1.000,1.000,-90.00,180.00,-22.50,OPEN,0
672416.954,0,0,0,1.000,1.000,1.000,-90.00,180.00,-22.50,OPEN,0
672416.957,0,0,0,1.000,1.000,1.000,-90.00,180.00,-22.50,OPEN,0
672416.961,0,0,0,1.000,1.000,1.000,-90.00,180.00,-22.50,OPEN,0
672416.965,0,0,0,1.000,1.000,1.000,-90.00,180.00,-22.50,OPEN,0
672416.969,0,0,0,1.000,1.000,1.000,-90.00,180.00,-22.50,OPEN,0
672416.972,0,0,0,1.000,1.000,1.000,-90.00,180.00,-22.50,OPEN,0
672416.976,0,0,0,1.000,1.000,1.000,-90.00,180.00,-22.50,OPEN,0
672416.980,0,0,0,1.000,1.000,1.000,-90.00,180.00,-22.50,OPEN,0
672416.983,0,0,0,1.000,1.000,1.000,-90.00,180.00,-22.50,OPEN,0
672416.987,0,0,0,1.000,1.000,1.000,-90.00,180.00,-22.50,OPEN,0
672416.991,0,0,0,1.000,1.000,1.000,-90.00,180.00,-22.50,OPEN,0
672416.995,0,0,0,1.000,1.000,1.000,-90.00,180.00,-22.50,OPEN,0
672416.998,0,0,0,1.000,1.000,1.000,-90.00,180.00,-22.50,OPEN,0
672417.002,0,0,0,1.000,1.000,1.000,-90.00,180.00,-22.50,OPEN,0
672417.006,0,0,0,1.000,1.000,1.000,-90.00,180.00,-22.50,OPEN,0
672417.012,0,0,0,1.000,1.000,1.000,-90.00,180.00,-22.50,OPEN,0
672417.016,0,0,0,1.000,1.000,1.000,-90.00,180.00,-22.50,OPEN,0
672417.020,0,0,0,1.000,1.000,1.000,-90.00,180.00,-22.50,OPEN,0
672417.023,0,0,0,1.000,1.000,1.000,-90.00,180.00,-22.50,OPEN,0
672417.027,0,0,0,1.000,1.000,1.000,-90.00,180.00,-22.50,OPEN,0
672417.031,0,0,0,1.000,1.000,1.000,-90.00,180.00,-22.50,OPEN,0
672417.035,0,0,0,1.000,1.000,1.000,-90.00,180.00,-22.50,OPEN,0
672417.039,0,0,0,1.000,1.000,1.000,-90.00,180.00,-22.50,OPEN,0
672417.042,0,0,0,1.000,1.000,1.000,-90.00,180.00,-22.50,OPEN,0
672417.046,0,0,0,1.000,1.000,1.000,-90.00,180.00,-22.50,OPEN,0
672417.050,0,0,0,1.000,1.000,1.000,-90.00,180.00,-22.50,OPEN,0
672417.054,0,0,0,1.000,1.000,1.000,-90.00,180.00,-22.50,OPEN,0
672417.057,0,0,0,1.000,1.000,1.000,-90.00,180.00,-22.50,OPEN,0
672417.061,0,0,0,1.000,1.000,1.000,-90.00,180.00,-22.50,OPEN,0
672417.065,0,0,0,1.000,1.000,1.000,-90.00,180.00,-22.50,OPEN,0
672417.069,0,0,0,1.000,1.000,1.000,-90.00,180.00,-22.50,OPEN,0
672417.073,0,0,0,1.000,1.000,1.000,-90.00,180.00,-22.50,OPEN,0
672417.076,0,0,0,1.000,1.000,1.000,-90.00,180.00,-22.50,OPEN,0
672417.080,0,0,0,1.000,1.000,1.000,-90.00,180.00,-22.50,OPEN,0
672417.083,0,0,0,1.000,1.000,1.000,-90.00,180.00,-22.50,OPEN,0
672417.088,0,0,0,1.000,1.000,1.000,-90.00,180.00,-22.50,OPEN,0
672417.091,0,0,0,1.000,1.000,1.000,-90.00,180.00,-22.50,OPEN,0
672417.096,0,0,0,1.000,1.000,1.000,-90.00,180.00,-22.50,OPEN,0
672417.101,0,0,0,1.000,1.000,1.000,-90.00,180.00,-22.50,OPEN,0
672417.105,0,0,0,1.000,1.000,1.000,-90.00,180.00,-22.50,OPEN,0
672417.108,0,0,0,1.000,1.000,1.000,-90.00,180.00,-22.50,OPEN,0
672417.112,0,0,0,1.000,1.000,1.000,-90.00,180.00,-22.50,OPEN,0
672417.115,0,0,0,1.000,1.000,1.000,-90.00,180.00,-22.50,OPEN,0
672417.119,0,0,0,1.000,1.000,1.000,-90.00,180.00,-22.50,OPEN,0
672417.123,0,0,0,1.000,1.000,1.000,-90.00,180.00,-22.50,OPEN,0
672417.127,0,0,0,1.000,1.000,1.000,-90.00,180.00,-22.50,OPEN,0
672417.131,0,0,0,1.000,1.000,1.000,-90.00,180.00,-22.50,OPEN,0
672417.135,0,0,0,1.000,1.000,1.000,-90.00,180.00,-22.50,OPEN,0
672417.139,0,0,0,1.000,1.000,1.000,-90.00,180.00,-22.50,OPEN,0
672417.143,0,0,0,1.000,1.000,1.000,-90.00,180.00,-22.50,OPEN,0
672417.146,0,0,0,1.000,1.000,1.000,-90.00,180.00,-22.50,OPEN,0
672417.150,0,0,0,1.000,1.000,1.000,-90.00,180.00,-22.50,OPEN,0
672417.154,0,0,0,1.000,1.000,1.000,-90.00,180.00,-22.50,OPEN,0
672417.158,0,0,0,1.000,1.000,1.000,-90.00,180.00,-22.50,OPEN,0
672417.161,0,0,0,1.000,1.000,1.000,-90.00,180.00,-22.50,OPEN,0
672417.165,0,0,0,1.000,1.000,1.000,-90.00,180.00,-22.50,OPEN,0
672417.169,0,0,0,1.000,1.000,1.000,-90.00,180.00,-22.50,OPEN,0
672417.173,0,0,0,1.000,1.000,1.000,-90.00,180.00,-22.50,OPEN,0
672417.177,0,0,0,1.000,1.000,1.000,-90.00,180.00,-22.50,OPEN,0
672417.181,0,0,0,1.000,1.000,1.000,-90.00,180.00,-22.50,OPEN,0
672417.185,0,0,0,1.000,1.000,1.000,-90.00,180.00,-22.50,OPEN,0
672417.188,0,0,0,1.000,1.000,1.000,-90.00,180.00,-22.50,OPEN,0
672417.192,0,0,0,1.000,1.000,1.000,-90.00,180.00,-22.50,OPEN,0
672417.196,0,0,0,1.000,1.000,1.000,-90.00,180.00,-22.50,OPEN,0
672417.200,0,0,0,1.000,1.000,1.000,-90.00,180.00,-22.50,OPEN,0
672417.204,0,0,0,1.000,1.000,1.000,-90.00,180.00,-22.50,OPEN,0
672417.207,0,0,0,1.000,1.000,1.000,-90.00,180.00,-22.50,OPEN,0
672417.211,0,0,0,1.000,1.000,1.000,-90.00,180.00,-22.50,OPEN,0
672417.215,0,0,0,1.000,1.000,1.000,-90.00,180.00,-22.50,OPEN,0
672417.220,0,0,0,1.000,1.000,1.000,-90.00,180.00,-22.50,OPEN,0
672417.224,0,0,0,1.000,1.000,1.000,-90.00,180.00,-22.50,OPEN,0
672417.229,0,0,0,1.000,1.000,1.000,-90.00,180.00,-22.50,OPEN,0
672417.233,0,0,0,1.000,1.000,1.000,-90.00,180.00,-22.50,OPEN,0
672417.236,0,0,0,1.000,1.000,1.000,-90.00,180.00,-22.50,OPEN,0
672417.240,0,0,0,1.000,1.000,1.000,-90.00,180.00,-22.50,OPEN,0
672417.244,0,0,0,1.000,1.000,1.000,-90.00,180.00,-22.50,OPEN,0
672417.247,0,0,0,1.000,1.000,1.000,-90.00,180.00,-22.50,OPEN,0
672417.252,0,0,0,1.000,1.000,1.000,-90.00,180.00,-22.50,OPEN,0
672417.257,0,0,0,1.000,1.000,1.000,-90.00,180.00,-22.50,OPEN,0
672417.264,0,0,0,1.000,1.000,1.000,-90.00,180.00,-22.50,OPEN,0
672417.270,0,0,0,1.000,1.000,1.000,-90.00,180.00,-22.50,OPEN,0
672417.275,0,0,0,1.000,1.000,1.000,-90.00,180.00,-22.50,OPEN,0
672417.280,0,0,0,1.000,1.000,1.000,-90.00,180.00,-22.50,OPEN,0
672417.285,0,0,0,1.000,1.000,1.000,-90.00,180.00,-22.50,OPEN,0
672417.290,0,0,0,1.000,1.000,1.000,-90.00,180.00,-22.50,OPEN,0
672417.294,0,0,0,1.000,1.000,1.000,-90.00,180.00,-22.50,OPEN,0
672417.298,0,0,0,1.000,1.000,1.000,-90.00,180.00,-22.50,OPEN,0
672417.302,0,0,0,1.000,1.000,1.000,-90.00,180.00,-22.50,OPEN,0
672417.307,0,0,0,1.000,1.000,1.000,-90.00,180.00,-22.50,OPEN,0
672417.311,0,0,0,1.000,1.000,1.000,-90.00,180.00,-22.50,OPEN,0
672417.315,0,0,0,1.000,1.000,1.000,-90.00,180.00,-22.50,OPEN,0
672417.319,0,0,0,1.000,1.000,1.000,-90.00,180.00,-22.50,OPEN,0
672417.323,0,0,0,1.000,1.000,1.000,-90.00,180.00,-22.50,OPEN,0
672417.327,0,0,0,1.000,1.000,1.000,-90.00,180.00,-22.50,OPEN,0
672417.330,0,0,0,1.000,1.000,1.000,-90.00,180.00,-22.50,OPEN,0
672417.335,0,0,0,1.000,1.000,1.000,-90.00,180.00,-22.50,OPEN,0
672417.339,0,0,0,1.000,1.000,1.000,-90.00,180.00,-22.50,OPEN,0
672417.343,0,0,0,1.000,1.000,1.000,-90.00,180.00,-22.50,OPEN,0
672417.348,0,0,0,1.000,1.000,1.000,-90.00,180.00,-22.50,OPEN,0
672417.353,0,0,0,1.000,1.000,1.000,-90.00,180.00,-22.50,OPEN,0
672417.358,0,0,0,1.000,1.000,1.000,-90.00,180.00,-22.50,OPEN,0
672417.362,0,0,0,1.000,1.000,1.000,-90.00,180.00,-22.50,OPEN,0
672417.366,0,0,0,1.000,1.000,1.000,-90.00,180.00,-22.50,OPEN,0
672417.370,0,0,0,1.000,1.000,1.000,-90.00,180.00,-22.50,OPEN,0
672417.374,0,0,0,1.000,1.000,1.000,-90.00,180.00,-22.50,OPEN,0
672417.378,0,0,0,1.000,1.000,1.000,-90.00,180.00,-22.50,OPEN,0
672417.381,0,0,0,1.000,1.000,1.000,-90.00,180.00,-22.50,OPEN,0
672417.386,0,0,0,1.000,1.000,1.000,-90.00,180.00,-22.50,OPEN,0
672417.389,0,0,0,1.000,1.000,1.000,-90.00,180.00,-22.50,OPEN,0
672417.393,0,0,0,1.000,1.000,1.000,-90.00,180.00,-22.50,OPEN,0
672417.397,0,0,0,1.000,1.000,1.000,-90.00,180.00,-22.50,OPEN,0
672417.401,0,0,0,1.000,1.000,1.000,-90.00,180.00,-22.50,OPEN,0
672417.405,0,0,0,1.000,1.000,1.000,-90.00,180.00,-22.50,OPEN,0
672417.409,0,0,0,1.000,1.000,1.000,-90.00,180.00,-22.50,OPEN,0
672417.413,0,0,0,1.000,1.000,1.000,-90.00,180.00,-22.50,OPEN,0
672417.418,0,0,0,1.000,1.000,1.000,-90.00,180.00,-22.50,OPEN,0
672417.422,0,0,0,1.000,1.000,1.000,-90.00,180.00,-22.50,OPEN,0
672417.427,0,0,0,1.000,1.000,1.000,-90.00,180.00,-22.50,OPEN,0
672417.431,0,0,0,0.768,1.000,1.000,-90.00,180.00,-22.50,OPEN,0
672417.435,0,0,0,0.955,1.000,1.000,-90.00,180.00,-22.50,OPEN,0
672417.441,0,0,0,0.990,1.000,1.000,-90.00,180.00,-22.50,OPEN,0
672417.452,0,0,0,0.998,1.000,1.000,-90.00,180.00,-22.50,OPEN,0
672417.467,0,0,0,0.999,1.000,1.000,-90.00,180.00,-22.50,OPEN,0
672417.476,0,0,0,1.000,1.000,1.000,-90.00,180.00,-22.50,OPEN,0
672417.482,0,0,0,1.000,1.000,1.000,-90.00,180.00,-22.50,OPEN,0
672417.488,0,0,0,1.000,1.000,1.000,-90.00,180.00,-22.50,OPEN,0
672417.494,0,0,0,1.000,1.000,1.000,-90.00,180.00,-22.50,OPEN,0
672417.499,0,0,0,1.000,1.000,1.000,-90.00,180.00,-22.50,OPEN,0
672417.503,3,0,0,1.000,1.000,1.000,-90.00,180.00,-22.50,CLOSED,0
672417.507,3,0,0,1.000,1.000,1.000,-90.00,180.00,-22.50,CLOSED,0
672417.511,3,0,0,1.000,1.000,1.000,-90.00,180.00,-22.50,CLOSED,0
672417.514,3,0,0,1.000,1.000,1.000,-90.00,180.00,-22.50,CLOSED,0
672417.518,3,0,0,1.000,1.000,1.000,-90.00,180.00,-22.50,CLOSED,0
672417.521,3,0,0,1.000,1.000,1.000,-90.00,180.00,-22.50,CLOSED,0
672417.525,3,0,0,1.000,1.000,1.000,-90.00,180.00,-22.50,CLOSED,0
672417.529,3,0,0,1.000,1.000,1.000,-90.00,180.00,-22.50,CLOSED,0
672417.533,3,0,0,1.000,1.000,1.000,-90.00,180.00,-22.50,CLOSED,0
672417.538,3,0,0,1.000,1.000,1.000,-90.00,180.00,-22.50,CLOSED,0
672417.544,3,0,0,1.000,1.000,1.000,-90.00,180.00,-22.50,CLOSED,0
672417.549,3,0,0,1.000,1.000,1.000,-90.00,180.00,-22.50,CLOSED,0
672417.555,3,0,0,1.000,1.000,1.000,-90.00,180.00,-22.50,CLOSED,0
672417.561,3,0,0,1.000,1.000,1.000,-90.00,180.00,-22.50,CLOSED,0
672417.568,3,0,0,1.000,1.000,1.000,-90.00,180.00,-22.50,CLOSED,0
672417.574,3,0,0,1.000,1.000,1.000,-90.00,180.00,-22.50,CLOSED,0
672417.579,3,0,0,1.000,1.000,1.000,-90.00,180.00,-22.50,CLOSED,0
672417.583,3,0,0,1.000,1.000,1.000,-90.00,180.00,-22.50,CLOSED,0
672417.588,3,0,0,1.000,1.000,1.000,-90.00,180.00,-22.50,CLOSED,0
672417.591,3,0,0,1.000,1.000,1.000,-90.00,180.00,-22.50,CLOSED,0
672417.595,3,0,0,1.000,1.000,1.000,-90.00,180.00,-22.50,CLOSED,0
672417.598,3,0,0,1.000,1.000,1.000,-90.00,180.00,-22.50,CLOSED,0
672417.602,3,0,0,1.000,1.000,1.000,-90.00,180.00,-22.50,CLOSED,0
672417.606,3,0,0,1.000,1.000,1.000,-90.00,180.00,-22.50,CLOSED,0
672417.609,3,0,0,1.000,1.000,1.000,-90.00,180.00,-22.50,CLOSED,0
672417.613,3,0,0,1.000,1.000,1.000,-90.00,180.00,-22.50,CLOSED,0
672417.617,3,0,0,1.000,1.000,1.000,-90.00,180.00,-22.50,CLOSED,0
672417.621,3,0,0,1.000,1.000,1.000,-90.00,180.00,-22.50,CLOSED,0
672417.625,3,0,0,1.000,1.000,1.000,-90.00,180.00,-22.50,CLOSED,0
672417.629,3,0,0,1.000,1.000,1.000,-90.00,180.00,-22.50,CLOSED,0
672417.632,3,0,0,1.000,1.000,1.000,-90.00,180.00,-22.50,CLOSED,0
672417.636,3,0,0,1.000,1.000,1.000,-90.00,180.00,-22.50,CLOSED,0
672417.640,3,0,0,1.000,1.000,1.000,-90.00,180.00,-22.50,CLOSED,0
672417.644,3,0,0,1.000,1.000,1.000,-90.00,180.00,-22.50,CLOSED,0
672417.647,3,0,0,1.000,1.000,1.000,-90.00,180.00,-22.50,CLOSED,0
672417.652,3,0,0,1.000,1.000,1.000,-90.00,180.00,-22.50,CLOSED,0
672417.655,3,0,0,1.000,1.000,1.000,-90.00,180.00,-22.50,CLOSED,0
672417.659,3,0,0,1.000,1.000,1.000,-90.00,180.00,-22.50,CLOSED,0
672417.662,3,0,0,1.000,1.000,1.000,-90.00,180.00,-22.50,CLOSED,0
672417.666,3,0,0,1.000,1.000,1.000,-90.00,180.00,-22.50,CLOSED,0
672417.670,3,0,0,1.000,1.000,1.000,-90.00,180.00,-22.50,CLOSED,0
672417.674,3,0,0,1.000,1.000,1.000,-90.00,180.00,-22.50,CLOSED,0
672417.679,3,0,0,1.000,1.000,1.000,-90.00,180.00,-22.50,CLOSED,0
672417.684,3,0,0,1.000,1.000,1.000,-90.00,180.00,-22.50,CLOSED,0
672417.688,3,0,0,1.000,1.000,1.000,-90.00,180.00,-22.50,CLOSED,0
672417.692,3,0,0,1.000,1.000,1.000,-90.00,180.00,-22.50,CLOSED,0
672417.696,3,0,0,1.000,1.000,1.000,-90.00,180.00,-22.50,CLOSED,0
672417.700,3,0,0,1.000,1.000,1.000,-90.00,180.00,-22.50,CLOSED,0
672417.704,3,0,0,1.000,1.000,1.000,-90.00,180.00,-22.50,CLOSED,0
672417.707,3,0,0,1.000,1.000,1.000,-90.00,180.00,-22.50,CLOSED,0
672417.711,3,0,0,1.000,1.000,1.000,-90.00,180.00,-22.50,CLOSED,0
672417.715,3,0,0,1.000,1.000,1.000,-90.00,180.00,-22.50,CLOSED,0
672417.719,3,0,0,1.000,1.000,1.000,-90.00,180.00,-22.50,CLOSED,0
672417.723,3,0,0,1.000,1.000,1.000,-90.00,180.00,-22.50,CLOSED,0
672417.727,3,0,0,1.000,1.000,1.000,-90.00,180.00,-22.50,CLOSED,0
672417.731,3,0,0,1.000,1.000,1.000,-90.00,180.00,-22.50,CLOSED,0
672417.736,3,0,0,1.000,1.000,1.000,-90.00,180.00,-22.50,CLOSED,0
672417.740,3,0,0,1.000,1.000,1.000,-90.00,180.00,-22.50,CLOSED,0
672417.743,3,0,0,1.000,1.000,1.000,-90.00,180.00,-22.50,CLOSED,0
672417.747,3,0,0,1.000,1.000,1.000,-90.00,180.00,-22.50,CLOSED,0
672417.751,3,0,0,1.000,1.000,1.000,-90.00,180.00,-22.50,CLOSED,0
672417.755,3,0,0,1.000,1.000,1.000,-90.00,180.00,-22.50,CLOSED,0
672417.758,3,0,0,1.000,1.000,1.000,-90.00,180.00,-22.50,CLOSED,0
672417.762,3,0,0,1.000,1.000,1.000,-90.00,180.00,-22.50,CLOSED,0
672417.766,3,0,0,1.000,1.000,1.000,-90.00,180.00,-22.50,CLOSED,0
672417.769,3,0,0,1.000,1.000,1.000,-90.00,180.00,-22.50,CLOSED,0
672417.773,3,0,0,1.000,1.000,1.000,-90.00,180.00,-22.50,CLOSED,0
672417.777,3,0,0,1.000,1.000,1.000,-90.00,180.00,-22.50,CLOSED,0
672417.781,3,0,0,1.000,1.000,1.000,-90.00,180.00,-22.50,CLOSED,0
672417.785,3,0,0,1.000,1.000,1.000,-90.00,180.00,-22.50,CLOSED,0
672417.789,3,0,0,1.000,1.000,1.000,-90.00,180.00,-22.50,CLOSED,0
672417.793,3,0,0,1.000,1.000,1.000,-90.00,180.00,-22.50,CLOSED,0
672417.797,3,0,0,1.000,1.000,1.000,-90.00,180.00,-22.50,CLOSED,0
672417.802,3,0,0,1.000,1.000,1.000,-90.00,180.00,-22.50,CLOSED,0
672417.806,3,0,0,1.000,1.000,1.000,-90.00,180.00,-22.50,CLOSED,0
672417.810,3,0,0,1.000,1.000,1.000,-90.00,180.00,-22.50,CLOSED,0
672417.815,3,0,0,1.000,1.000,1.000,-90.00,180.00,-22.50,CLOSED,0
672417.819,3,0,0,1.000,1.000,1.000,-90.00,180.00,-22.50,CLOSED,0
672417.823,3,0,0,1.000,1.000,1.000,-90.00,180.00,-22.50,CLOSED,0
672417.827,3,0,0,1.000,1.000,1.000,-90.00,180.00,-22.50,CLOSED,0
672417.831,3,0,0,1.000,1.000,1.000,-90.00,180.00,-22.50,CLOSED,0
672417.835,3,0,0,1.000,1.000,1.000,-90.00,180.00,-22.50,CLOSED,0
672417.839,3,0,0,1.000,1.000,1.000,-90.00,180.00,-22.50,CLOSED,0
672417.843,3,0,0,1.000,1.000,1.000,-90.00,180.00,-22.50,CLOSED,0
672417.846,3,0,0,1.000,1.000,1.000,-90.00,180.00,-22.50,CLOSED,0
672417.850,3,0,0,1.000,1.000,1.000,-90.00,180.00,-22.50,CLOSED,0
672417.853,3,0,0,1.000,1.000,1.000,-90.00,180.00,-22.50,CLOSED,0
672417.857,3,0,0,1.000,1.000,1.000,-90.00,180.00,-22.50,CLOSED,0
672417.861,3,0,0,1.000,1.000,1.000,-90.00,180.00,-22.50,CLOSED,0
672417.864,3,0,0,1.000,1.000,1.000,-90.00,180.00,-22.50,CLOSED,0
672417.868,3,0,0,1.000,1.000,1.000,-90.00,180.00,-22.50,CLOSED,0
672417.872,3,0,0,1.000,1.000,1.000,-90.00,180.00,-22.50,CLOSED,0
672417.876,3,0,0,1.000,1.000,1.000,-90.00,180.00,-22.50,CLOSED,0
672417.879,3,0,0,1.000,1.000,1.000,-90.00,180.00,-22.50,CLOSED,0
672417.883,3,0,0,1.000,1.000,1.000,-90.00,180.00,-22.50,CLOSED,0
672417.887,3,0,0,1.000,1.000,1.000,-90.00,180.00,-22.50,CLOSED,0
672417.891,3,0,0,1.000,1.000,1.000,-90.00,180.00,-22.50,CLOSED,0
672417.894,3,0,0,1.000,1.000,1.000,-90.00,180.00,-22.50,CLOSED,0
672417.899,3,0,0,1.000,1.000,1.000,-90.00,180.00,-22.50,CLOSED,0
672417.904,3,0,0,1.000,1.000,1.000,-90.00,180.00,-22.50,CLOSED,0
672417.908,3,0,0,1.000,1.000,1.000,-90.00,180.00,-22.50,CLOSED,0
672417.913,3,0,0,1.000,1.000,1.000,-90.00,180.00,-22.50,CLOSED,0
672417.917,3,0,0,1.000,1.000,1.000,-90.00,180.00,-22.50,CLOSED,0
672417.921,3,0,0,1.000,1.000,1.000,-90.00,180.00,-22.50,CLOSED,0
672417.925,3,0,0,1.000,1.000,1.000,-90.00,180.00,-22.50,CLOSED,0
672417.929,3,0,0,1.000,1.000,1.000,-90.00,180.00,-22.50,CLOSED,0
672417.933,3,0,0,1.000,1.000,1.000,-90.00,180.00,-22.50,CLOSED,0
672417.937,3,0,0,1.000,1.000,1.000,-90.00,180.00,-22.50,CLOSED,0
672417.940,3,0,0,1.000,1.000,1.000,-90.00,180.00,-22.50,CLOSED,0
672417.944,3,0,0,1.000,1.000,1.000,-90.00,180.00,-22.50,CLOSED,0
672417.947,3,0,0,1.000,1.000,1.000,-90.00,180.00,-22.50,CLOSED,0
672417.951,3,0,0,1.000,1.000,1.000,-90.00,180.00,-22.50,CLOSED,0
672417.955,3,0,0,1.000,1.000,1.000,-90.00,180.00,-22.50,CLOSED,0
672417.959,3,0,0,1.000,1.000,1.000,-90.00,180.00,-22.50,CLOSED,0
672417.962,3,0,0,1.000,1.000,1.000,-90.00,180.00,-22.50,CLOSED,0
672417.967,3,0,0,0.998,1.000,1.000,-90.00,180.00,-22.50,CLOSED,0
672417.970,3,0,0,0.973,1.000,1.000,-90.00,180.00,-22.50,CLOSED,0
672417.974,3,0,0,0.588,1.000,1.000,-90.00,180.00,-22.50,CLOSED,0
672417.977,3,0,0,1.000,1.000,1.000,-90.00,180.00,-22.50,CLOSED,0
672417.981,3,0,0,1.000,1.000,1.000,-90.00,180.00,-22.50,CLOSED,0
672417.985,3,0,0,1.000,1.000,1.000,-90.00,180.00,-22.50,CLOSED,0
672417.989,3,0,0,1.000,1.000,1.000,-90.00,180.00,-22.50,CLOSED,0
672417.993,3,0,0,1.000,1.000,1.000,-90.00,180.00,-22.50,CLOSED,0
672417.996,3,0,0,1.000,1.000,1.000,-90.00,180.00,-22.50,CLOSED,0
672418.000,3,0,0,1.000,1.000,1.000,-90.00,180.00,-22.50,CLOSED,0
672418.005,0,0,0,1.000,1.000,1.000,-90.00,180.00,-22.50,CLOSED,0
672418.009,0,0,0,1.000,1.000,1.000,-90.00,180.00,-22.50,CLOSED,0
672418.014,0,0,0,1.000,1.000,1.000,-90.00,180.00,-22.50,CLOSED,0
672418.018,0,0,0,1.000,1.000,1.000,-90.00,180.00,-22.50,CLOSED,0
672418.021,0,0,0,1.000,1.000,1.000,-90.00,180.00,-22.50,CLOSED,0
672418.025,0,0,0,1.000,1.000,1.000,-90.00,180.00,-22.50,CLOSED,0
672418.029,0,0,0,1.000,1.000,1.000,-90.00,180.00,-22.50,CLOSED,0
672418.033,0,0,0,1.000,1.000,1.000,-90.00,180.00,-22.50,CLOSED,0
672418.037,0,0,0,1.000,1.000,1.000,-90.00,180.00,-22.50,CLOSED,0
672418.041,0,0,0,1.000,1.000,1.000,-90.00,180.00,-22.50,CLOSED,0
672418.045,0,0,0,1.000,1.000,1.000,-90.00,180.00,-22.50,CLOSED,0
672418.049,0,0,0,1.000,1.000,1.000,-90.00,180.00,-22.50,CLOSED,0
672418.053,0,0,0,1.000,1.000,1.000,-90.00,180.00,-22.50,CLOSED,0
672418.057,0,0,0,1.000,1.000,1.000,-90.00,180.00,-22.50,CLOSED,0
672418.061,0,0,0,1.000,1.000,1.000,-90.00,180.00,-22.50,CLOSED,0
672418.065,0,0,0,1.000,1.000,1.000,-90.00,180.00,-22.50,CLOSED,0
672418.069,0,0,0,1.000,1.000,1.000,-90.00,180.00,-22.50,CLOSED,0
672418.073,0,0,0,1.000,1.000,1.000,-90.00,180.00,-22.50,CLOSED,0
672418.077,0,0,0,1.000,1.000,1.000,-90.00,180.00,-22.50,CLOSED,0
672418.081,0,0,0,1.000,1.000,1.000,-90.00,180.00,-22.50,CLOSED,0
672418.084,0,0,0,1.000,1.000,1.000,-90.00,180.00,-22.50,CLOSED,0
672418.088,0,0,0,1.000,1.000,1.000,-90.00,180.00,-22.50,CLOSED,0
672418.092,0,0,0,1.000,1.000,1.000,-90.00,180.00,-22.50,CLOSED,0
672418.095,0,0,0,1.000,1.000,1.000,-90.00,180.00,-22.50,CLOSED,0
672418.099,0,0,0,1.000,1.000,1.000,-90.00,180.00,-22.50,CLOSED,0
672418.103,0,0,0,1.000,1.000,1.000,-90.00,180.00,-22.50,CLOSED,0
672418.107,0,0,0,1.000,1.000,1.000,-90.00,180.00,-22.50,CLOSED,0
672418.111,0,0,0,1.000,1.000,1.000,-90.00,180.00,-22.50,CLOSED,0
672418.116,0,0,0,1.000,1.000,1.000,-90.00,180.00,-22.50,CLOSED,0
672418.120,0,0,0,1.000,1.000,1.000,-90.00,180.00,-22.50,CLOSED,0
672418.124,0,0,0,1.000,1.000,1.000,-90.00,180.00,-22.50,CLOSED,0
672418.127,0,0,0,1.000,1.000,1.000,-90.00,180.00,-22.50,CLOSED,0
672418.131,0,0,0,1.000,1.000,1.000,-90.00,180.00,-22.50,CLOSED,0
672418.135,0,0,0,1.000,1.000,1.000,-90.00,180.00,-22.50,CLOSED,0
672418.139,0,0,0,1.000,1.000,1.000,-90.00,180.00,-22.50,CLOSED,0
672418.142,0,0,0,1.000,1.000,1.000,-90.00,180.00,-22.50,CLOSED,0
672418.147,0,0,0,1.000,1.000,1.000,-90.00,180.00,-22.50,CLOSED,0
672418.151,0,0,0,1.000,1.000,1.000,-90.00,180.00,-22.50,CLOSED,0
672418.155,0,0,0,1.000,1.000,1.000,-90.00,180.00,-22.50,CLOSED,0
672418.159,0,0,0,1.000,1.000,1.000,-90.00,180.00,-22.50,CLOSED,0
672418.163,0,0,0,1.000,1.000,1.000,-90.00,180.00,-22.50,CLOSED,0
672418.168,0,0,0,1.000,1.000,1.000,-90.00,180.00,-22.50,CLOSED,0
672418.171,0,0,0,1.000,1.000,1.000,-90.00,180.00,-22.50,CLOSED,0
672418.175,0,0,0,1.000,1.000,1.000,-90.00,180.00,-22.50,CLOSED,0
672418.179,0,0,0,1.000,1.000,1.000,-90.00,180.00,-22.50,CLOSED,0
672418.183,0,0,0,1.000,1.000,1.000,-90.00,180.00,-22.50,CLOSED,0
672418.187,0,0,0,1.000,1.000,1.000,-90.00,180.00,-22.50,CLOSED,0
672418.190,0,0,0,1.000,1.000,1.000,-90.00,180.00,-22.50,CLOSED,0
672418.194,0,0,0,1.000,1.000,1.000,-90.00,180.00,-22.50,CLOSED,0
672418.198,0,0,0,1.000,1.000,1.000,-90.00,180.00,-22.50,CLOSED,0
672418.202,0,0,0,1.000,1.000,1.000,-90.00,180.00,-22.50,CLOSED,0
672418.207,0,0,0,1.000,1.000,1.000,-90.00,180.00,-22.50,CLOSED,0
672418.211,0,0,0,1.000,1.000,1.000,-90.00,180.00,-22.50,CLOSED,0
672418.214,0,0,0,1.000,1.000,1.000,-90.00,180.00,-22.50,CLOSED,0
672418.218,0,0,0,1.000,1.000,1.000,-90.00,180.00,-22.50,CLOSED,0
672418.222,0,0,0,1.000,1.000,1.000,-90.00,180.00,-22.50,CLOSED,0
672418.226,0,0,0,1.000,1.000,1.000,-90.00,180.00,-22.50,CLOSED,0
672418.231,0,0,0,1.000,1.000,1.000,-90.00,180.00,-22.50,CLOSED,0
672418.235,0,0,0,1.000,1.000,1.000,-90.00,180.00,-22.50,CLOSED,0
672418.239,0,0,0,1.000,1.000,1.000,-90.00,180.00,-22.50,CLOSED,0
672418.243,0,0,0,1.000,1.000,1.000,-90.00,180.00,-22.50,CLOSED,0
672418.247,0,0,0,1.000,1.000,1.000,-90.00,180.00,-22.50,CLOSED,0
672418.251,0,0,0,1.000,1.000,1.000,-90.00,180.00,-22.50,CLOSED,0
672418.255,0,0,0,1.000,1.000,1.000,-90.00,180.00,-22.50,CLOSED,0
672418.258,0,0,0,1.000,1.000,1.000,-90.00,180.00,-22.50,CLOSED,0
672418.262,0,0,0,1.000,1.000,1.000,-90.00,180.00,-22.50,CLOSED,0
672418.266,0,0,0,1.000,1.000,1.000,-90.00,180.00,-22.50,CLOSED,0
672418.270,0,0,0,1.000,1.000,1.000,-90.00,180.00,-22.50,CLOSED,0
672418.273,0,0,0,1.000,1.000,1.000,-90.00,180.00,-22.50,CLOSED,0
672418.277,0,0,0,1.000,1.000,1.000,-90.00,180.00,-22.50,CLOSED,0
672418.281,0,0,0,1.000,1.000,1.000,-90.00,180.00,-22.50,CLOSED,0
672418.285,0,0,0,1.000,1.000,1.000,-90.00,180.00,-22.50,CLOSED,0
672418.289,0,0,0,1.000,1.000,1.000,-90.00,180.00,-22.50,CLOSED,0
672418.293,0,0,0,1.000,1.000,1.000,-90.00,180.00,-22.50,CLOSED,0
672418.297,0,0,0,1.000,1.000,1.000,-90.00,180.00,-22.50,CLOSED,0
672418.300,0,0,0,1.000,1.000,1.000,-90.00,180.00,-22.50,CLOSED,0
672418.304,0,0,0,1.000,1.000,1.000,-90.00,180.00,-22.50,CLOSED,0
672418.308,0,0,0,1.000,1.000,1.000,-90.00,180.00,-22.50,CLOSED,0
672418.312,0,0,0,1.000,1.000,1.000,-90.00,180.00,-22.50,CLOSED,0
672418.316,0,0,0,1.000,1.000,1.000,-90.00,180.00,-22.50,CLOSED,0
672418.319,0,0,0,1.000,1.000,1.000,-90.00,180.00,-22.50,CLOSED,0
672418.323,0,0,0,1.000,1.000,1.000,-90.00,180.00,-22.50,CLOSED,0
672418.327,0,0,0,1.000,1.000,1.000,-90.00,180.00,-22.50,CLOSED,0
672418.332,0,0,0,1.000,1.000,1.000,-90.00,180.00,-22.50,CLOSED,0
672418.337,0,0,0,1.000,1.000,1.000,-90.00,180.00,-22.50,CLOSED,0
672418.343,0,0,0,1.000,1.000,1.000,-90.00,180.00,-22.50,CLOSED,0
672418.349,0,0,0,1.000,1.000,1.000,-90.00,180.00,-22.50,CLOSED,0
672418.353,0,0,0,1.000,1.000,1.000,-90.00,180.00,-22.50,CLOSED,0
672418.357,0,0,0,1.000,1.000,1.000,-90.00,180.00,-22.50,CLOSED,0
672418.361,0,0,0,1.000,1.000,1.000,-90.00,180.00,-22.50,CLOSED,0
672418.365,0,0,0,1.000,1.000,1.000,-90.00,180.00,-22.50,CLOSED,0
672418.370,0,0,0,1.000,1.000,1.000,-90.00,180.00,-22.50,CLOSED,0
672418.373,0,0,0,1.000,1.000,1.000,-90.00,180.00,-22.50,CLOSED,0
672418.377,0,0,0,1.000,1.000,1.000,-90.00,180.00,-22.50,CLOSED,0
672418.381,0,0,0,1.000,1.000,1.000,-90.00,180.00,-22.50,CLOSED,0
672418.385,0,0,0,1.000,1.000,1.000,-90.00,180.00,-22.50,CLOSED,0
672418.389,0,0,0,1.000,1.000,1.000,-90.00,180.00,-22.50,CLOSED,0
672418.392,0,0,0,1.000,1.000,1.000,-90.00,180.00,-22.50,CLOSED,0
672418.397,0,0,0,1.000,1.000,1.000,-90.00,180.00,-22.50,CLOSED,0
672418.402,0,0,0,1.000,1.000,1.000,-90.00,180.00,-22.50,CLOSED,0
672418.407,0,0,0,1.000,1.000,1.000,-90.00,180.00,-22.50,CLOSED,0
672418.411,0,0,0,1.000,1.000,1.000,-90.00,180.00,-22.50,CLOSED,0
672418.416,0,0,0,1.000,1.000,1.000,-90.00,180.00,-22.50,CLOSED,0
672418.420,0,0,0,1.000,1.000,1.000,-90.00,180.00,-22.50,CLOSED,0
672418.424,0,0,0,1.000,1.000,1.000,-90.00,180.00,-22.50,CLOSED,0
672418.428,0,0,0,1.000,1.000,1.000,-90.00,180.00,-22.50,CLOSED,0
672418.431,0,0,0,1.000,1.000,1.000,-90.00,180.00,-22.50,CLOSED,0
672418.436,0,0,0,1.000,1.000,1.000,-90.00,180.00,-22.50,CLOSED,0
672418.440,0,0,0,1.000,1.000,1.000,-90.00,180.00,-22.50,CLOSED,0
672418.443,0,0,0,1.000,1.000,1.000,-90.00,180.00,-22.50,CLOSED,0
672418.447,0,0,0,1.000,1.000,1.000,-90.00,180.00,-22.50,CLOSED,0
672418.454,0,0,0,1.000,1.000,1.000,-90.00,180.00,-22.50,CLOSED,0
672418.459,0,0,0,1.000,1.000,1.000,-90.00,180.00,-22.50,CLOSED,0
672418.463,0,0,0,1.000,1.000,1.000,-90.00,180.00,-22.50,CLOSED,0
672418.467,0,0,0,1.000,1.000,1.000,-90.00,180.00,-22.50,CLOSED,0
672418.471,0,0,0,1.000,1.000,1.000,-90.00,180.00,-22.50,CLOSED,0
672418.475,0,0,0,1.000,1.000,1.000,-90.00,180.00,-22.50,CLOSED,0
672418.479,0,0,0,1.000,1.000,1.000,-90.00,180.00,-22.50,CLOSED,0
672418.482,0,0,0,1.000,1.000,1.000,-90.00,180.00,-22.50,CLOSED,0
672418.486,0,0,0,1.000,1.000,1.000,-90.00,180.00,-22.50,CLOSED,0
672418.490,0,0,0,1.000,1.000,1.000,-90.00,180.00,-22.50,CLOSED,0
672418.494,0,0,0,1.000,1.000,1.000,-90.00,180.00,-22.50,CLOSED,0
672418.497,0,0,0,1.000,1.000,1.000,-90.00,180.00,-22.50,CLOSED,0
672418.501,0,0,0,1.000,1.000,1.000,-90.00,180.00,-22.50,CLOSED,0
672418.505,0,0,0,1.000,1.000,1.000,-90.00,180.00,-22.50,CLOSED,0
672418.508,0,0,0,1.000,1.000,1.000,-90.00,180.00,-22.50,CLOSED,0
672418.512,0,0,0,1.000,1.000,1.000,-90.00,180.00,-22.50,CLOSED,0
672418.516,0,0,0,1.000,1.000,1.000,-90.00,180.00,-22.50,CLOSED,0
672418.520,0,0,0,1.000,1.000,1.000,-90.00,180.00,-22.50,CLOSED,0
672418.524,0,0,0,1.000,1.000,1.000,-90.00,180.00,-22.50,CLOSED,0
672418.528,0,0,0,1.000,1.000,1.000,-90.00,180.00,-22.50,CLOSED,0
672418.531,0,0,0,1.000,1.000,1.000,-90.00,180.00,-22.50,CLOSED,0
672418.535,0,0,0,1.000,1.000,1.000,-90.00,180.00,-22.50,CLOSED,0
672418.539,0,0,0,1.000,1.000,1.000,-90.00,180.00,-22.50,CLOSED,0
672418.543,0,0,0,1.000,1.000,1.000,-90.00,180.00,-22.50,CLOSED,0
672418.547,0,0,0,1.000,1.000,1.000,-90.00,180.00,-22.50,CLOSED,0
672418.551,0,0,0,0.998,1.000,1.000,-90.00,180.00,-22.50,CLOSED,0
672418.554,0,0,0,0.993,0.998,1.000,-90.00,180.00,-22.50,CLOSED,0
672418.558,0,0,0,0.980,0.978,1.000,-90.00,180.00,-22.50,CLOSED,0
672418.562,0,0,0,0.972,0.957,1.000,-90.00,180.00,-22.50,CLOSED,0
672418.566,0,0,0,0.958,1.000,1.000,-90.00,180.00,-22.50,CLOSED,0
672418.570,0,0,0,0.881,1.000,1.000,-90.00,180.00,-22.50,CLOSED,0
672418.574,0,0,0,0.600,1.000,1.000,-90.00,180.00,-22.50,CLOSED,0
672418.579,0,0,0,0.496,1.000,1.000,-90.00,180.00,-22.50,CLOSED,0
672418.583,0,0,0,0.629,1.000,1.000,-90.00,180.00,-22.50,CLOSED,0
672418.587,0,0,0,0.832,1.000,1.000,-90.00,180.00,-22.50,CLOSED,0
672418.591,0,0,0,0.889,1.000,1.000,-90.00,180.00,-22.50,CLOSED,0
672418.596,0,0,0,0.903,1.000,1.000,-90.00,180.00,-22.50,CLOSED,0
672418.600,0,0,0,0.939,1.000,1.000,-90.00,180.00,-22.50,CLOSED,0
672418.604,0,0,0,0.955,1.000,1.000,-90.00,180.00,-22.50,CLOSED,0
672418.608,0,0,0,0.949,1.000,1.000,-90.00,180.00,-22.50,CLOSED,0
672418.613,2,0,0,0.898,1.000,1.000,-90.00,180.00,-27.00,CLOSED,1
672418.617,2,0,0,0.730,1.000,1.000,-90.00,180.00,-27.00,CLOSED,0
672418.621,2,0,0,0.525,1.000,1.000,-90.00,180.00,-27.00,CLOSED,0
672418.625,2,0,0,0.780,1.000,1.000,-90.00,180.00,-27.00,CLOSED,0
672418.629,2,0,0,0.922,1.000,1.000,-90.00,180.00,-27.00,CLOSED,0
672418.633,2,0,0,0.972,1.000,1.000,-90.00,180.00,-27.00,CLOSED,0
672418.637,2,0,0,0.987,1.000,1.000,-90.00,180.00,-27.00,CLOSED,0
672418.641,2,0,0,0.993,1.000,1.000,-90.00,180.00,-27.00,CLOSED,0
672418.644,2,0,0,0.996,1.000,1.000,-90.00,180.00,-27.00,CLOSED,0
672418.648,2,0,0,0.997,1.000,1.000,-90.00,180.00,-27.00,CLOSED,0
672418.652,0,0,0,0.998,1.000,1.000,-90.00,180.00,-27.00,CLOSED,0
672418.655,0,0,0,0.998,1.000,1.000,-90.00,180.00,-27.00,CLOSED,0
672418.659,0,0,0,0.998,1.000,1.000,-90.00,180.00,-27.00,CLOSED,0
672418.663,0,0,0,0.998,1.000,1.000,-90.00,180.00,-27.00,CLOSED,0
672418.667,0,0,0,1.000,1.000,1.000,-90.00,180.00,-27.00,CLOSED,0
672418.672,0,0,0,1.000,1.000,1.000,-90.00,180.00,-27.00,CLOSED,0
672418.677,0,0,0,1.000,1.000,1.000,-90.00,180.00,-27.00,CLOSED,0
672418.682,0,0,0,1.000,1.000,1.000,-90.00,180.00,-27.00,CLOSED,0
672418.687,0,0,0,1.000,1.000,1.000,-90.00,180.00,-27.00,CLOSED,0
672418.691,0,0,0,1.000,1.000,1.000,-90.00,180.00,-27.00,CLOSED,0
672418.695,0,0,0,1.000,1.000,1.000,-90.00,180.00,-27.00,CLOSED,0
672418.699,0,0,0,1.000,1.000,1.000,-90.00,180.00,-27.00,CLOSED,0
672418.703,0,0,0,1.000,1.000,1.000,-90.00,180.00,-27.00,CLOSED,0
672418.707,0,0,0,1.000,1.000,1.000,-90.00,180.00,-27.00,CLOSED,0
672418.711,0,0,0,1.000,1.000,1.000,-90.00,180.00,-27.00,CLOSED,0
672418.714,0,0,0,1.000,1.000,1.000,-90.00,180.00,-27.00,CLOSED,0
672418.718,0,0,0,1.000,1.000,1.000,-90.00,180.00,-27.00,CLOSED,0
672418.722,0,0,0,1.000,1.000,1.000,-90.00,180.00,-27.00,CLOSED,0
672418.726,0,0,0,1.000,1.000,1.000,-90.00,180.00,-27.00,CLOSED,0
672418.731,0,0,0,1.000,1.000,1.000,-90.00,180.00,-27.00,CLOSED,0
672418.737,0,0,0,1.000,1.000,1.000,-90.00,180.00,-27.00,CLOSED,0
672418.748,0,0,0,1.000,1.000,1.000,-90.00,180.00,-27.00,CLOSED,0
672418.757,0,0,0,1.000,1.000,1.000,-90.00,180.00,-27.00,CLOSED,0
672418.766,0,0,0,1.000,1.000,1.000,-90.00,180.00,-27.00,CLOSED,0
672418.775,0,0,0,1.000,1.000,1.000,-90.00,180.00,-27.00,CLOSED,0
672418.781,0,0,0,1.000,1.000,1.000,-90.00,180.00,-27.00,CLOSED,0
672418.787,0,0,0,1.000,1.000,1.000,-90.00,180.00,-27.00,CLOSED,0
672418.792,0,0,0,1.000,1.000,1.000,-90.00,180.00,-27.00,CLOSED,0
672418.797,0,0,0,1.000,1.000,1.000,-90.00,180.00,-27.00,CLOSED,0
672418.804,0,0,0,1.000,1.000,1.000,-90.00,180.00,-27.00,CLOSED,0
672418.808,0,0,0,1.000,1.000,1.000,-90.00,180.00,-27.00,CLOSED,0
672418.811,0,0,0,1.000,1.000,1.000,-90.00,180.00,-27.00,CLOSED,0
672418.815,0,0,0,1.000,1.000,1.000,-90.00,180.00,-27.00,CLOSED,0
672418.819,0,0,0,1.000,1.000,1.000,-90.00,180.00,-27.00,CLOSED,0
672418.822,0,0,0,1.000,1.000,1.000,-90.00,180.00,-27.00,CLOSED,0
672418.827,0,0,0,1.000,1.000,1.000,-90.00,180.00,-27.00,CLOSED,0
672418.831,0,0,0,1.000,1.000,1.000,-90.00,180.00,-27.00,CLOSED,0
672418.836,0,0,0,1.000,1.000,1.000,-90.00,180.00,-27.00,CLOSED,0
672418.840,0,0,0,1.000,1.000,1.000,-90.00,180.00,-27.00,CLOSED,0
672418.845,0,0,0,1.000,1.000,1.000,-90.00,180.00,-27.00,CLOSED,0
672418.850,0,0,0,1.000,1.000,1.000,-90.00,180.00,-27.00,CLOSED,0
672418.854,0,0,0,1.000,1.000,1.000,-90.00,180.00,-27.00,CLOSED,0
672418.858,0,0,0,1.000,1.000,1.000,-90.00,180.00,-27.00,CLOSED,0
672418.862,0,0,0,1.000,1.000,1.000,-90.00,180.00,-27.00,CLOSED,0
672418.865,0,0,0,1.000,1.000,1.000,-90.00,180.00,-27.00,CLOSED,0
672418.869,0,0,0,1.000,1.000,1.000,-90.00,180.00,-27.00,CLOSED,0
672418.872,0,0,0,1.000,1.000,1.000,-90.00,180.00,-27.00,CLOSED,0
672418.876,0,0,0,1.000,1.000,1.000,-90.00,180.00,-27.00,CLOSED,0
672418.880,0,0,0,1.000,1.000,1.000,-90.00,180.00,-27.00,CLOSED,0
672418.884,0,0,0,1.000,1.000,1.000,-90.00,180.00,-27.00,CLOSED,0
672418.888,0,0,0,1.000,1.000,1.000,-90.00,180.00,-27.00,CLOSED,0
672418.892,0,0,0,1.000,1.000,1.000,-90.00,180.00,-27.00,CLOSED,0
672418.896,0,0,0,1.000,1.000,1.000,-90.00,180.00,-27.00,CLOSED,0
672418.900,0,0,0,1.000,1.000,1.000,-90.00,180.00,-27.00,CLOSED,0
672418.904,0,0,0,1.000,1.000,1.000,-90.00,180.00,-27.00,CLOSED,0
672418.908,0,0,0,1.000,1.000,1.000,-90.00,180.00,-27.00,CLOSED,0
672418.912,0,0,0,1.000,1.000,1.000,-90.00,180.00,-27.00,CLOSED,0
672418.916,0,0,0,1.000,1.000,1.000,-90.00,180.00,-27.00,CLOSED,0
672418.919,0,0,0,1.000,1.000,1.000,-90.00,180.00,-27.00,CLOSED,0
672418.923,0,0,0,1.000,1.000,1.000,-90.00,180.00,-27.00,CLOSED,0
672418.927,0,0,0,1.000,1.000,1.000,-90.00,180.00,-27.00,CLOSED,0
672418.931,0,0,0,1.000,1.000,1.000,-90.00,180.00,-27.00,CLOSED,0
672418.936,0,0,0,1.000,1.000,1.000,-90.00,180.00,-27.00,CLOSED,0
672418.940,0,0,0,1.000,1.000,1.000,-90.00,180.00,-27.00,CLOSED,0
672418.944,0,0,0,1.000,1.000,1.000,-90.00,180.00,-27.00,CLOSED,0
672418.948,0,0,0,1.000,1.000,1.000,-90.00,180.00,-27.00,CLOSED,0
672418.953,0,0,0,1.000,1.000,1.000,-90.00,180.00,-27.00,CLOSED,0
672418.957,0,0,0,1.000,1.000,1.000,-90.00,180.00,-27.00,CLOSED,0
672418.961,0,0,0,1.000,1.000,1.000,-90.00,180.00,-27.00,CLOSED,0
672418.965,0,0,0,1.000,1.000,1.000,-90.00,180.00,-27.00,CLOSED,0
672418.968,0,0,0,1.000,1.000,1.000,-90.00,180.00,-27.00,CLOSED,0
672418.972,0,0,0,1.000,1.000,1.000,-90.00,180.00,-27.00,CLOSED,0
672418.976,0,0,0,1.000,1.000,1.000,-90.00,180.00,-27.00,CLOSED,0
672418.980,0,0,0,1.000,1.000,1.000,-90.00,180.00,-27.00,CLOSED,0
672418.983,0,0,0,1.000,1.000,1.000,-90.00,180.00,-27.00,CLOSED,0
672418.987,0,0,0,1.000,1.000,1.000,-90.00,180.00,-27.00,CLOSED,0
672418.991,0,0,0,1.000,1.000,1.000,-90.00,180.00,-27.00,CLOSED,0
672418.994,0,0,0,1.000,1.000,1.000,-90.00,180.00,-27.00,CLOSED,0
672418.998,0,0,0,1.000,1.000,1.000,-90.00,180.00,-27.00,CLOSED,0
672419.002,0,0,0,1.000,1.000,1.000,-90.00,180.00,-27.00,CLOSED,0
672419.006,0,0,0,1.000,1.000,1.000,-90.00,180.00,-27.00,CLOSED,0
672419.011,0,0,0,1.000,1.000,1.000,-90.00,180.00,-27.00,CLOSED,0
672419.015,0,0,0,1.000,1.000,1.000,-90.00,180.00,-27.00,CLOSED,0
672419.020,0,0,0,1.000,1.000,1.000,-90.00,180.00,-27.00,CLOSED,0
672419.024,0,0,0,1.000,1.000,1.000,-90.00,180.00,-27.00,CLOSED,0
672419.027,0,0,0,1.000,1.000,1.000,-90.00,180.00,-27.00,CLOSED,0
672419.031,0,0,0,1.000,1.000,1.000,-90.00,180.00,-27.00,CLOSED,0
672419.036,0,0,0,1.000,1.000,1.000,-90.00,180.00,-27.00,CLOSED,0
672419.039,0,0,0,1.000,1.000,1.000,-90.00,180.00,-27.00,CLOSED,0
672419.043,0,0,0,1.000,1.000,1.000,-90.00,180.00,-27.00,CLOSED,0
672419.047,0,0,0,1.000,1.000,1.000,-90.00,180.00,-27.00,CLOSED,0
672419.050,0,0,0,1.000,1.000,1.000,-90.00,180.00,-27.00,CLOSED,0
672419.054,0,0,0,1.000,1.000,1.000,-90.00,180.00,-27.00,CLOSED,0
672419.058,0,0,0,1.000,1.000,1.000,-90.00,180.00,-27.00,CLOSED,0
672419.064,0,0,0,1.000,0.993,1.000,-90.00,180.00,-27.00,CLOSED,0
672419.070,0,0,0,1.000,0.947,1.000,-90.00,180.00,-27.00,CLOSED,0
672419.075,0,0,0,1.000,0.842,1.000,-90.00,180.00,-27.00,CLOSED,0
672419.080,0,0,0,1.000,0.684,1.000,-90.00,180.00,-27.00,CLOSED,0
672419.085,0,0,0,1.000,0.748,1.000,-90.00,180.00,-27.00,CLOSED,0
672419.089,0,0,0,1.000,0.994,1.000,-90.00,180.00,-27.00,CLOSED,0
672419.094,0,0,0,1.000,1.000,1.000,-90.00,180.00,-27.00,CLOSED,0
672419.099,0,1,0,1.000,1.000,1.000,-90.00,179.72,-27.00,CLOSED,0
672419.103,0,1,0,1.000,1.000,1.000,-90.00,179.46,-27.00,CLOSED,1
672419.107,0,1,0,1.000,1.000,1.000,-90.00,179.20,-27.00,CLOSED,0
672419.111,0,1,0,1.000,1.000,1.000,-90.00,178.97,-27.00,CLOSED,0
672419.115,0,1,0,1.000,1.000,1.000,-90.00,178.74,-27.00,CLOSED,0
672419.119,0,1,0,1.000,1.000,1.000,-90.00,178.51,-27.00,CLOSED,0
672419.123,0,1,0,1.000,1.000,1.000,-90.00,178.28,-27.00,CLOSED,0
672419.127,0,1,0,1.000,1.000,1.000,-90.00,178.05,-27.00,CLOSED,0
672419.130,0,1,0,1.000,1.000,1.000,-90.00,177.83,-27.00,CLOSED,0
672419.134,0,1,0,1.000,1.000,1.000,-90.00,177.59,-27.00,CLOSED,0
672419.139,0,1,0,1.000,1.000,1.000,-90.00,177.31,-27.00,CLOSED,0
672419.143,0,1,0,1.000,1.000,1.000,-90.00,177.05,-27.00,CLOSED,0
672419.147,0,1,0,1.000,1.000,1.000,-90.00,176.83,-27.00,CLOSED,0
672419.151,0,1,0,1.000,1.000,1.000,-90.00,176.61,-27.00,CLOSED,0
672419.154,0,1,0,1.000,1.000,1.000,-90.00,176.39,-27.00,CLOSED,0
672419.158,0,1,0,1.000,1.000,1.000,-90.00,176.18,-27.00,CLOSED,0
672419.162,0,1,0,1.000,1.000,1.000,-90.00,175.93,-27.00,CLOSED,0
672419.166,0,1,0,1.000,1.000,1.000,-90.00,175.70,-27.00,CLOSED,0
672419.170,0,1,0,1.000,1.000,1.000,-90.00,175.46,-27.00,CLOSED,0
672419.174,0,1,0,1.000,1.000,1.000,-90.00,175.23,-27.00,CLOSED,0
672419.178,0,1,0,1.000,1.000,1.000,-90.00,174.97,-27.00,CLOSED,0
672419.181,0,1,0,1.000,1.000,1.000,-90.00,174.76,-27.00,CLOSED,0
672419.185,0,1,0,1.000,1.000,1.000,-90.00,174.53,-27.00,CLOSED,0
672419.190,0,1,0,1.000,1.000,1.000,-90.00,174.27,-27.00,CLOSED,0
672419.195,0,1,0,1.000,1.000,1.000,-90.00,173.97,-27.00,CLOSED,0
672419.199,0,1,0,1.000,1.000,1.000,-90.00,173.73,-27.00,CLOSED,0
672419.203,0,1,0,1.000,1.000,1.000,-90.00,173.50,-27.00,CLOSED,0
672419.207,0,1,0,1.000,1.000,1.000,-90.00,173.25,-27.00,CLOSED,1
672419.210,0,1,0,1.000,1.000,1.000,-90.00,173.02,-27.00,CLOSED,0
672419.214,0,1,0,1.000,1.000,1.000,-90.00,172.79,-27.00,CLOSED,0
672419.219,0,1,0,1.000,1.000,1.000,-90.00,172.52,-27.00,CLOSED,0
672419.223,0,1,0,1.000,1.000,1.000,-90.00,172.29,-27.00,CLOSED,0
672419.226,0,1,0,1.000,1.000,1.000,-90.00,172.08,-27.00,CLOSED,0
672419.230,0,1,0,1.000,1.000,1.000,-90.00,171.86,-27.00,CLOSED,0
672419.235,0,1,0,1.000,1.000,1.000,-90.00,171.53,-27.00,CLOSED,0
672419.240,0,1,0,1.000,1.000,1.000,-90.00,171.27,-27.00,CLOSED,0
672419.244,0,1,0,1.000,1.000,1.000,-90.00,171.03,-27.00,CLOSED,0
672419.248,0,1,0,1.000,1.000,1.000,-90.00,170.78,-27.00,CLOSED,0
672419.252,0,1,0,1.000,1.000,1.000,-90.00,170.52,-27.00,CLOSED,0
672419.256,0,1,0,1.000,1.000,1.000,-90.00,170.28,-27.00,CLOSED,0
672419.260,0,1,0,1.000,1.000,1.000,-90.00,170.03,-27.00,CLOSED,0
672419.265,0,1,0,1.000,1.000,1.000,-90.00,169.77,-27.00,CLOSED,0
672419.269,0,1,0,1.000,1.000,1.000,-90.00,169.49,-27.00,CLOSED,0
672419.274,0,1,0,1.000,1.000,1.000,-90.00,169.19,-27.00,CLOSED,0
672419.278,0,1,0,1.000,1.000,1.000,-90.00,168.94,-27.00,CLOSED,0
672419.283,0,1,0,1.000,1.000,1.000,-90.00,168.69,-27.00,CLOSED,0
672419.287,0,1,0,1.000,1.000,1.000,-90.00,168.45,-27.00,CLOSED,0
672419.290,0,1,0,1.000,1.000,1.000,-90.00,168.24,-27.00,CLOSED,0
672419.294,0,1,0,1.000,1.000,1.000,-90.00,168.04,-27.00,CLOSED,0
672419.297,0,1,0,1.000,1.000,1.000,-90.00,167.82,-27.00,CLOSED,0
672419.301,0,1,0,1.000,1.000,1.000,-90.00,167.59,-27.00,CLOSED,0
672419.304,0,1,0,1.000,1.000,1.000,-90.00,167.39,-27.00,CLOSED,0
672419.308,0,1,0,1.000,1.000,1.000,-90.00,167.15,-27.00,CLOSED,1
672419.313,0,1,0,1.000,1.000,1.000,-90.00,166.90,-27.00,CLOSED,0
672419.318,0,1,0,1.000,1.000,1.000,-90.00,166.59,-27.00,CLOSED,0
672419.322,0,1,0,1.000,1.000,1.000,-90.00,166.31,-27.00,CLOSED,0
672419.327,0,1,0,1.000,1.000,1.000,-90.00,166.03,-27.00,CLOSED,0
672419.332,0,1,0,1.000,1.000,1.000,-90.00,165.71,-27.00,CLOSED,0
672419.337,0,1,0,1.000,1.000,1.000,-90.00,165.40,-27.00,CLOSED,0
672419.343,0,1,0,1.000,1.000,1.000,-90.00,165.09,-27.00,CLOSED,0
672419.348,0,1,0,1.000,1.000,1.000,-90.00,164.75,-27.00,CLOSED,0
672419.353,0,1,0,1.000,1.000,1.000,-90.00,164.46,-27.00,CLOSED,0
672419.357,0,1,0,1.000,1.000,1.000,-90.00,164.23,-27.00,CLOSED,0
672419.363,0,1,0,1.000,1.000,1.000,-90.00,163.88,-27.00,CLOSED,0
672419.367,0,1,0,1.000,1.000,1.000,-90.00,163.60,-27.00,CLOSED,0
672419.371,0,1,0,1.000,1.000,1.000,-90.00,163.37,-27.00,CLOSED,0
672419.375,0,1,0,1.000,1.000,1.000,-90.00,163.14,-27.00,CLOSED,0
672419.380,0,1,0,1.000,1.000,1.000,-90.00,162.87,-27.00,CLOSED,0
672419.385,0,1,0,1.000,1.000,1.000,-90.00,162.57,-27.00,CLOSED,0
672419.390,0,1,0,1.000,1.000,1.000,-90.00,162.27,-27.00,CLOSED,0
672419.395,0,1,0,1.000,1.000,1.000,-90.00,161.93,-27.00,CLOSED,0
672419.400,0,1,0,1.000,1.000,1.000,-90.00,161.62,-27.00,CLOSED,0
672419.405,0,1,0,1.000,1.000,1.000,-90.00,161.34,-27.00,CLOSED,0
672419.410,0,1,0,1.000,1.000,1.000,-90.00,161.07,-27.00,CLOSED,1
672419.414,0,1,0,1.000,1.000,1.000,-90.00,160.81,-27.00,CLOSED,0
672419.418,0,1,0,1.000,1.000,1.000,-90.00,160.58,-27.00,CLOSED,0
672419.422,0,1,0,1.000,1.000,1.000,-90.00,160.35,-27.00,CLOSED,0
672419.426,0,1,0,1.000,1.000,1.000,-90.00,160.11,-27.00,CLOSED,0
672419.429,0,1,0,1.000,1.000,1.000,-90.00,159.89,-27.00,CLOSED,0
672419.433,0,1,0,1.000,1.000,1.000,-90.00,159.67,-27.00,CLOSED,0
672419.437,0,1,0,1.000,1.000,1.000,-90.00,159.44,-27.00,CLOSED,0
672419.440,0,1,0,1.000,1.000,1.000,-90.00,159.23,-27.00,CLOSED,0
672419.445,0,1,0,1.000,1.000,1.000,-90.00,158.98,-27.00,CLOSED,0
672419.448,0,1,0,1.000,1.000,1.000,-90.00,158.75,-27.00,CLOSED,0
672419.453,0,1,0,1.000,1.000,1.000,-90.00,158.49,-27.00,CLOSED,0
672419.458,0,1,0,1.000,1.000,1.000,-90.00,158.15,-27.00,CLOSED,0
672419.463,0,1,0,1.000,1.000,1.000,-90.00,157.87,-27.00,CLOSED,0
672419.467,0,1,0,1.000,1.000,1.000,-90.00,157.62,-27.00,CLOSED,0
672419.472,0,1,0,1.000,1.000,1.000,-90.00,157.32,-27.00,CLOSED,0
672419.477,0,1,0,1.000,1.000,1.000,-90.00,157.06,-27.00,CLOSED,0
672419.481,0,1,0,1.000,1.000,1.000,-90.00,156.78,-27.00,CLOSED,0
672419.486,0,1,0,1.000,1.000,1.000,-90.00,156.50,-27.00,CLOSED,0
672419.490,0,1,0,1.000,1.000,1.000,-90.00,156.24,-27.00,CLOSED,0
672419.494,0,1,0,1.000,1.000,1.000,-90.00,155.99,-27.00,CLOSED,0
672419.499,0,1,0,1.000,1.000,1.000,-90.00,155.72,-27.00,CLOSED,0
672419.503,0,1,0,1.000,1.000,1.000,-90.00,155.49,-27.00,CLOSED,0
672419.506,0,1,0,1.000,1.000,1.000,-90.00,155.27,-27.00,CLOSED,0
672419.510,0,1,0,1.000,1.000,1.000,-90.00,155.03,-27.00,CLOSED,1
672419.514,0,1,0,1.000,1.000,1.000,-90.00,154.79,-27.00,CLOSED,0
672419.518,0,1,0,1.000,1.000,1.000,-90.00,154.55,-27.00,CLOSED,0
672419.522,0,1,0,1.000,1.000,1.000,-90.00,154.30,-27.00,CLOSED,0
672419.527,0,1,0,1.000,1.000,1.000,-90.00,154.05,-27.00,CLOSED,0
672419.531,0,1,0,1.000,1.000,1.000,-90.00,153.79,-27.00,CLOSED,0
672419.535,0,1,0,1.000,1.000,1.000,-90.00,153.53,-27.00,CLOSED,0
672419.540,0,1,0,1.000,1.000,1.000,-90.00,153.26,-27.00,CLOSED,0
672419.544,0,1,0,1.000,1.000,1.000,-90.00,153.00,-27.00,CLOSED,0
672419.548,0,1,0,1.000,1.000,1.000,-90.00,152.76,-27.00,CLOSED,0
672419.552,0,1,0,1.000,1.000,1.000,-90.00,152.53,-27.00,CLOSED,0
672419.556,0,1,0,1.000,1.000,1.000,-90.00,152.28,-27.00,CLOSED,0
672419.560,0,1,0,1.000,1.000,1.000,-90.00,152.07,-27.00,CLOSED,0
672419.563,0,1,0,1.000,1.000,1.000,-90.00,151.86,-27.00,CLOSED,0
672419.567,0,1,0,1.000,1.000,1.000,-90.00,151.62,-27.00,CLOSED,0
672419.571,0,1,0,1.000,1.000,1.000,-90.00,151.38,-27.00,CLOSED,0
672419.575,0,1,0,1.000,1.000,1.000,-90.00,151.17,-27.00,CLOSED,0
672419.578,0,1,0,1.000,1.000,1.000,-90.00,150.94,-27.00,CLOSED,0
672419.582,0,1,0,1.000,1.000,1.000,-90.00,150.72,-27.00,CLOSED,0
672419.588,0,1,0,1.000,1.000,1.000,-90.00,150.40,-27.00,CLOSED,0
672419.592,0,1,0,1.000,1.000,1.000,-90.00,150.10,-27.00,CLOSED,0
672419.599,0,1,0,1.000,1.000,1.000,-90.00,149.73,-27.00,CLOSED,0
672419.604,0,1,0,1.000,1.000,1.000,-90.00,149.41,-27.00,CLOSED,0
672419.608,0,1,0,1.000,1.000,1.000,-90.00,149.14,-27.00,CLOSED,0
672419.613,0,1,0,1.000,1.000,1.000,-90.00,148.88,-27.00,CLOSED,1
672419.617,0,1,0,1.000,1.000,1.000,-90.00,148.64,-27.00,CLOSED,0
672419.621,0,0,0,1.000,1.000,1.000,-90.00,148.88,-27.00,CLOSED,0
672419.629,0,0,0,1.000,1.000,1.000,-90.00,149.36,-27.00,CLOSED,0
672419.638,0,0,0,1.000,1.000,1.000,-90.00,149.92,-27.00,CLOSED,0
672419.646,0,0,0,1.000,1.000,1.000,-90.00,150.39,-27.00,CLOSED,0
672419.654,0,0,0,1.000,1.000,1.000,-90.00,150.86,-27.00,CLOSED,0
672419.660,0,0,0,1.000,1.000,1.000,-90.00,151.23,-27.00,CLOSED,0
672419.667,0,0,0,1.000,1.000,1.000,-90.00,151.64,-27.00,CLOSED,0
672419.674,0,0,0,1.000,1.000,1.000,-90.00,152.05,-27.00,CLOSED,0
672419.680,0,0,0,1.000,1.000,1.000,-90.00,152.40,-27.00,CLOSED,0
672419.685,0,0,0,1.000,1.000,1.000,-90.00,152.71,-27.00,CLOSED,0
672419.689,0,0,0,1.000,1.000,1.000,-90.00,152.97,-27.00,CLOSED,0
672419.693,0,0,0,1.000,1.000,1.000,-90.00,153.22,-27.00,CLOSED,0
672419.697,0,0,0,1.000,1.000,1.000,-90.00,153.47,-27.00,CLOSED,0
672419.701,0,0,0,1.000,1.000,1.000,-90.00,153.72,-27.00,CLOSED,0
672419.705,0,0,0,1.000,1.000,1.000,-90.00,153.95,-27.00,CLOSED,0
672419.709,0,0,0,1.000,1.000,1.000,-90.00,154.19,-27.00,CLOSED,0
672419.714,0,0,0,1.000,1.000,1.000,-90.00,154.50,-27.00,CLOSED,1
672419.719,0,0,0,1.000,1.000,1.000,-90.00,154.80,-27.00,CLOSED,0
672419.725,0,0,0,1.000,1.000,1.000,-90.00,155.12,-27.00,CLOSED,0
672419.729,0,0,0,1.000,1.000,1.000,-90.00,155.38,-27.00,CLOSED,0
672419.733,0,0,0,1.000,1.000,1.000,-90.00,155.61,-27.00,CLOSED,0
672419.737,0,0,0,1.000,1.000,1.000,-90.00,155.85,-27.00,CLOSED,0
672419.741,0,0,0,1.000,1.000,1.000,-90.00,156.09,-27.00,CLOSED,0
672419.745,0,0,0,1.000,1.000,1.000,-90.00,156.33,-27.00,CLOSED,0
672419.748,0,0,0,1.000,1.000,0.999,-90.00,156.54,-27.00,CLOSED,0
672419.752,0,0,0,0.999,1.000,0.990,-90.00,156.76,-27.00,CLOSED,0
672419.756,0,0,0,0.999,1.000,0.947,-90.00,157.00,-27.00,CLOSED,0
672419.760,0,0,0,1.000,0.997,0.840,-90.00,157.22,-27.00,CLOSED,0
672419.764,0,0,0,1.000,0.948,0.678,-90.00,157.46,-27.00,CLOSED,0
672419.770,0,0,0,1.000,0.754,0.528,-90.00,157.81,-27.00,CLOSED,0
672419.777,0,0,0,1.000,0.996,0.731,-90.00,158.23,-27.00,CLOSED,0
672419.783,0,0,0,0.999,1.000,0.896,-90.00,158.63,-27.00,CLOSED,0
672419.790,0,0,0,0.992,1.000,0.980,-90.00,159.01,-27.00,CLOSED,0
672419.796,0,0,0,0.981,1.000,0.996,-90.00,159.38,-27.00,CLOSED,0
672419.803,0,0,0,0.999,1.000,0.999,-90.00,159.80,-27.00,CLOSED,0
672419.809,0,0,0,1.000,1.000,1.000,-90.00,160.15,-27.00,CLOSED,0
672419.814,0,0,0,1.000,1.000,1.000,-90.00,160.45,-27.00,CLOSED,0
672419.818,0,0,0,1.000,1.000,1.000,-90.00,160.71,-27.00,CLOSED,1
672419.822,0,0,0,1.000,1.000,1.000,-90.00,160.97,-27.00,CLOSED,0
672419.826,0,0,0,1.000,1.000,1.000,-90.00,161.22,-27.00,CLOSED,0
672419.830,0,0,0,1.000,1.000,1.000,-90.00,161.43,-27.00,CLOSED,0
672419.833,0,0,0,1.000,1.000,1.000,-90.00,161.64,-27.00,CLOSED,0
672419.837,0,0,0,1.000,1.000,1.000,-90.00,161.86,-27.00,CLOSED,0
672419.841,0,0,0,1.000,1.000,1.000,-90.00,162.09,-27.00,CLOSED,0
672419.844,0,0,0,0.999,1.000,1.000,-90.00,162.29,-27.00,CLOSED,0
672419.848,0,0,0,0.995,1.000,1.000,-90.00,162.50,-27.00,CLOSED,0
672419.853,0,0,0,0.990,1.000,1.000,-90.00,162.80,-27.00,CLOSED,0
672419.859,0,0,0,1.000,0.969,1.000,-90.00,163.18,-27.00,CLOSED,0
672419.866,0,0,0,1.000,0.991,1.000,-90.00,163.60,-27.00,CLOSED,0
672419.873,0,0,0,1.000,1.000,1.000,-90.00,164.01,-27.00,CLOSED,0
672419.879,0,0,0,1.000,1.000,1.000,-90.00,164.40,-27.00,CLOSED,0
672419.886,0,0,0,1.000,1.000,1.000,-90.00,164.77,-27.00,CLOSED,0
672419.891,0,0,0,1.000,1.000,1.000,-90.00,165.11,-27.00,CLOSED,0
672419.897,0,0,0,1.000,1.000,1.000,-90.00,165.46,-27.00,CLOSED,0
672419.902,0,0,0,1.000,1.000,1.000,-90.00,165.77,-27.00,CLOSED,0
672419.907,0,0,0,1.000,1.000,1.000,-90.00,166.05,-27.00,CLOSED,0
672419.911,0,0,0,1.000,1.000,1.000,-90.00,166.30,-27.00,CLOSED,0
672419.915,0,0,0,1.000,1.000,1.000,-90.00,166.54,-27.00,CLOSED,0
672419.919,0,0,0,1.000,1.000,1.000,-90.00,166.77,-27.00,CLOSED,1
672419.923,0,0,0,1.000,1.000,1.000,-90.00,167.01,-27.00,CLOSED,0
672419.927,0,0,0,1.000,1.000,1.000,-90.00,167.23,-27.00,CLOSED,0
672419.931,0,0,0,1.000,1.000,1.000,-90.00,167.48,-27.00,CLOSED,0
672419.934,0,0,0,1.000,1.000,1.000,-90.00,167.70,-27.00,CLOSED,0
672419.938,0,0,0,1.000,1.000,1.000,-90.00,167.90,-27.00,CLOSED,0
672419.941,0,0,0,1.000,1.000,1.000,-90.00,168.11,-27.00,CLOSED,0
672419.945,0,0,0,1.000,1.000,1.000,-90.00,168.33,-27.00,CLOSED,0
672419.950,0,0,0,1.000,1.000,1.000,-90.00,168.60,-27.00,CLOSED,0
672419.954,0,0,0,1.000,0.999,1.000,-90.00,168.84,-27.00,CLOSED,0
672419.957,0,0,0,1.000,0.997,1.000,-90.00,169.08,-27.00,CLOSED,0
672419.962,0,0,0,1.000,0.996,1.000,-90.00,169.37,-27.00,CLOSED,0
672419.967,0,0,0,1.000,0.998,1.000,-90.00,169.67,-27.00,CLOSED,0
672419.972,0,0,0,1.000,0.999,1.000,-90.00,169.95,-27.00,CLOSED,0
672419.978,0,0,0,1.000,1.000,1.000,-90.00,170.32,-27.00,CLOSED,0
672419.982,0,0,0,1.000,1.000,1.000,-90.00,170.58,-27.00,CLOSED,0
672419.986,0,0,0,1.000,1.000,1.000,-90.00,170.82,-27.00,CLOSED,0
672419.990,0,0,0,1.000,1.000,1.000,-90.00,171.05,-27.00,CLOSED,0
672419.995,0,0,0,1.000,1.000,1.000,-90.00,171.32,-27.00,CLOSED,0
672419.999,0,0,0,1.000,1.000,1.000,-90.00,171.60,-27.00,CLOSED,0
672420.004,0,0,0,1.000,1.000,1.000,-90.00,171.87,-27.00,CLOSED,0
672420.009,0,0,0,1.000,1.000,1.000,-90.00,172.19,-27.00,CLOSED,0
672420.015,0,0,0,1.000,1.000,1.000,-90.00,172.51,-27.00,CLOSED,0
672420.020,0,0,0,1.000,1.000,1.000,-90.00,172.83,-27.00,CLOSED,1
672420.025,0,0,0,1.000,1.000,1.000,-90.00,173.11,-27.00,CLOSED,0
672420.030,0,0,0,1.000,1.000,1.000,-90.00,173.46,-27.00,CLOSED,0
672420.035,0,0,0,1.000,1.000,1.000,-90.00,173.76,-27.00,CLOSED,0
672420.039,0,0,0,1.000,1.000,1.000,-90.00,174.00,-27.00,CLOSED,0
672420.044,0,0,0,1.000,1.000,1.000,-90.00,174.25,-27.00,CLOSED,0
672420.048,0,0,0,1.000,1.000,1.000,-90.00,174.51,-27.00,CLOSED,0
672420.052,0,0,0,1.000,1.000,1.000,-90.00,174.76,-27.00,CLOSED,0
672420.056,0,0,0,1.000,1.000,1.000,-90.00,175.00,-27.00,CLOSED,0
672420.060,0,0,0,1.000,1.000,1.000,-90.00,175.24,-27.00,CLOSED,0
672420.064,0,0,0,1.000,1.000,1.000,-90.00,175.49,-27.00,CLOSED,0
672420.069,0,0,0,1.000,1.000,1.000,-90.00,175.74,-27.00,CLOSED,0
672420.073,0,0,0,1.000,1.000,1.000,-90.00,176.02,-27.00,CLOSED,0
672420.077,0,0,0,1.000,1.000,1.000,-90.00,176.28,-27.00,CLOSED,0
672420.082,0,0,0,1.000,1.000,1.000,-90.00,176.53,-27.00,CLOSED,0
672420.085,0,0,0,1.000,1.000,1.000,-90.00,176.76,-27.00,CLOSED,0
672420.089,0,0,0,1.000,1.000,1.000,-90.00,176.98,-27.00,CLOSED,0
672420.093,0,0,0,1.000,1.000,1.000,-90.00,177.22,-27.00,CLOSED,0
672420.097,0,0,0,1.000,1.000,1.000,-90.00,177.44,-27.00,CLOSED,0
672420.101,0,0,0,1.000,1.000,1.000,-90.00,177.67,-27.00,CLOSED,0
672420.104,0,0,0,1.000,1.000,1.000,-90.00,177.89,-27.00,CLOSED,0
672420.108,0,0,0,1.000,1.000,1.000,-90.00,178.12,-27.00,CLOSED,0
672420.112,0,0,0,1.000,1.000,1.000,-90.00,178.33,-27.00,CLOSED,0
672420.115,0,0,0,1.000,1.000,1.000,-90.00,178.54,-27.00,CLOSED,0
672420.119,0,0,0,1.000,1.000,1.000,-90.00,178.75,-27.00,CLOSED,0
672420.122,0,0,0,1.000,1.000,1.000,-90.00,178.97,-27.00,CLOSED,1
672420.127,0,0,0,1.000,1.000,1.000,-90.00,179.23,-27.00,CLOSED,0
672420.132,0,0,0,1.000,1.000,1.000,-90.00,179.57,-27.00,CLOSED,0
672420.138,0,0,0,1.000,1.000,1.000,-90.00,179.89,-27.00,CLOSED,0
672420.143,0,0,0,1.000,1.000,1.000,-90.00,180.00,-27.00,CLOSED,0
672420.149,0,0,0,1.000,1.000,1.000,-90.00,180.00,-27.00,CLOSED,0
672420.154,0,0,0,1.000,1.000,1.000,-90.00,180.00,-27.00,CLOSED,0
672420.158,0,0,0,1.000,1.000,1.000,-90.00,180.00,-27.00,CLOSED,0
672420.162,0,0,0,1.000,1.000,1.000,-90.00,180.00,-27.00,CLOSED,0
672420.166,0,0,0,1.000,1.000,1.000,-90.00,180.00,-27.00,CLOSED,0
672420.169,0,0,0,1.000,1.000,1.000,-90.00,180.00,-27.00,CLOSED,0
672420.173,0,0,0,1.000,1.000,1.000,-90.00,180.00,-27.00,CLOSED,0
672420.177,0,0,0,1.000,1.000,1.000,-90.00,180.00,-27.00,CLOSED,0
672420.182,0,0,0,1.000,1.000,1.000,-90.00,180.00,-27.00,CLOSED,0
672420.186,0,0,0,1.000,1.000,1.000,-90.00,180.00,-27.00,CLOSED,0
672420.190,0,0,0,1.000,1.000,1.000,-90.00,180.00,-27.00,CLOSED,0
672420.194,0,0,0,1.000,1.000,1.000,-90.00,180.00,-27.00,CLOSED,0
672420.197,0,0,0,1.000,1.000,1.000,-90.00,180.00,-27.00,CLOSED,0
672420.201,0,0,0,1.000,1.000,1.000,-90.00,180.00,-27.00,CLOSED,0
672420.205,0,0,0,1.000,1.000,1.000,-90.00,180.00,-27.00,CLOSED,0
672420.209,0,0,0,1.000,1.000,1.000,-90.00,180.00,-27.00,CLOSED,0
672420.212,0,0,0,1.000,1.000,1.000,-90.00,180.00,-27.00,CLOSED,0
672420.216,0,0,0,1.000,1.000,1.000,-90.00,180.00,-27.00,CLOSED,0
672420.220,0,0,0,1.000,1.000,1.000,-90.00,180.00,-27.00,CLOSED,0
672420.223,0,0,0,1.000,1.000,1.000,-90.00,180.00,-27.00,CLOSED,1
672420.228,0,0,0,1.000,1.000,1.000,-90.00,180.00,-27.00,CLOSED,0
672420.232,0,0,0,1.000,1.000,1.000,-90.00,180.00,-27.00,CLOSED,0
672420.236,0,0,0,1.000,1.000,1.000,-90.00,180.00,-27.00,CLOSED,0
672420.240,0,0,0,1.000,1.000,1.000,-90.00,180.00,-27.00,CLOSED,0
672420.243,0,0,0,1.000,1.000,1.000,-90.00,180.00,-27.00,CLOSED,0
672420.248,0,0,0,1.000,1.000,1.000,-90.00,180.00,-27.00,CLOSED,0
672420.253,0,0,0,1.000,1.000,1.000,-90.00,180.00,-27.00,CLOSED,0
672420.258,0,0,0,1.000,0.999,1.000,-90.00,180.00,-27.00,CLOSED,0
672420.262,0,0,0,1.000,0.995,1.000,-90.00,180.00,-27.00,CLOSED,0
672420.267,0,0,0,1.000,0.752,1.000,-90.00,180.00,-27.00,CLOSED,0
672420.272,0,0,0,1.000,1.000,1.000,-90.00,180.00,-27.00,CLOSED,0
672420.276,0,0,0,1.000,1.000,1.000,-90.00,180.00,-27.00,CLOSED,0
672420.280,0,0,0,0.998,1.000,1.000,-90.00,180.00,-27.00,CLOSED,0
672420.284,0,0,0,0.993,1.000,1.000,-90.00,180.00,-27.00,CLOSED,0
672420.288,0,0,0,0.993,1.000,1.000,-90.00,180.00,-27.00,CLOSED,0
672420.293,0,0,0,0.988,1.000,1.000,-90.00,180.00,-27.00,CLOSED,0
672420.297,0,0,0,0.978,1.000,1.000,-90.00,180.00,-27.00,CLOSED,0
672420.302,0,0,0,0.966,1.000,1.000,-90.00,180.00,-27.00,CLOSED,0
672420.307,0,0,0,0.957,1.000,1.000,-90.00,180.00,-27.00,CLOSED,0
672420.312,0,0,0,0.943,1.000,0.999,-90.00,180.00,-27.00,CLOSED,0
672420.317,0,0,0,0.899,1.000,0.996,-90.00,180.00,-27.00,CLOSED,0
672420.322,0,0,1,0.800,1.000,0.937,-89.73,180.00,-27.00,CLOSED,0
672420.326,0,0,1,0.792,1.000,0.895,-89.47,180.00,-27.00,CLOSED,1
672420.330,0,0,1,0.995,1.000,0.698,-89.23,180.00,-27.00,CLOSED,0
672420.333,0,0,1,1.000,1.000,0.554,-89.01,180.00,-27.00,CLOSED,0
672420.337,0,0,1,1.000,1.000,0.947,-88.78,180.00,-27.00,CLOSED,0
672420.341,0,0,1,1.000,1.000,0.993,-88.57,180.00,-27.00,CLOSED,0
672420.346,0,0,1,1.000,1.000,1.000,-88.28,180.00,-27.00,CLOSED,0
672420.350,0,0,1,1.000,1.000,1.000,-88.02,180.00,-27.00,CLOSED,0
672420.354,0,0,1,1.000,1.000,1.000,-87.80,180.00,-27.00,CLOSED,0
672420.358,0,0,1,1.000,1.000,1.000,-87.54,180.00,-27.00,CLOSED,0
672420.362,0,0,1,1.000,1.000,1.000,-87.27,180.00,-27.00,CLOSED,0
672420.367,0,0,1,1.000,0.999,1.000,-87.03,180.00,-27.00,CLOSED,0
672420.371,0,0,1,1.000,0.993,1.000,-86.77,180.00,-27.00,CLOSED,0
672420.375,0,0,1,1.000,0.939,1.000,-86.52,180.00,-27.00,CLOSED,0
672420.379,0,0,1,0.996,0.544,1.000,-86.30,180.00,-27.00,CLOSED,0
672420.382,0,0,1,0.997,0.868,1.000,-86.08,180.00,-27.00,CLOSED,0
672420.386,0,0,1,1.000,0.805,1.000,-85.87,180.00,-27.00,CLOSED,0
672420.389,0,0,1,1.000,0.776,1.000,-85.66,180.00,-27.00,CLOSED,0
672420.393,0,0,1,1.000,0.828,1.000,-85.44,180.00,-27.00,CLOSED,0
672420.397,0,0,1,1.000,0.966,1.000,-85.21,180.00,-27.00,CLOSED,0
672420.401,0,0,1,1.000,0.990,1.000,-84.98,180.00,-27.00,CLOSED,0
672420.405,0,0,1,1.000,0.997,1.000,-84.74,180.00,-27.00,CLOSED,0
672420.408,0,0,1,1.000,0.999,1.000,-84.51,180.00,-27.00,CLOSED,0
672420.413,0,0,1,1.000,1.000,1.000,-84.24,180.00,-27.00,CLOSED,0
672420.417,0,0,1,1.000,1.000,1.000,-84.03,180.00,-27.00,CLOSED,0
672420.421,0,0,1,1.000,1.000,1.000,-83.77,180.00,-27.00,CLOSED,0
672420.424,0,0,1,1.000,1.000,1.000,-83.57,180.00,-27.00,CLOSED,0
672420.428,0,0,1,1.000,1.000,1.000,-83.35,180.00,-27.00,CLOSED,1
672420.432,0,0,1,1.000,1.000,1.000,-83.08,180.00,-27.00,CLOSED,0
672420.436,0,0,1,1.000,1.000,1.000,-82.86,180.00,-27.00,CLOSED,0
672420.440,0,0,1,1.000,1.000,1.000,-82.63,180.00,-27.00,CLOSED,0
672420.443,0,0,1,1.000,1.000,1.000,-82.42,180.00,-27.00,CLOSED,0
672420.447,0,0,1,1.000,1.000,1.000,-82.20,180.00,-27.00,CLOSED,0
672420.451,0,0,1,1.000,1.000,1.000,-81.97,180.00,-27.00,CLOSED,0
672420.455,0,0,1,1.000,1.000,1.000,-81.74,180.00,-27.00,CLOSED,0
672420.458,0,0,1,1.000,1.000,1.000,-81.53,180.00,-27.00,CLOSED,0
672420.462,0,0,1,1.000,1.000,1.000,-81.28,180.00,-27.00,CLOSED,0
672420.466,0,0,1,1.000,1.000,1.000,-81.06,180.00,-27.00,CLOSED,0
672420.470,0,0,1,1.000,1.000,1.000,-80.80,180.00,-27.00,CLOSED,0
672420.475,0,0,1,1.000,1.000,1.000,-80.49,180.00,-27.00,CLOSED,0
672420.480,0,0,1,1.000,1.000,1.000,-80.24,180.00,-27.00,CLOSED,0
672420.484,0,0,1,1.000,1.000,1.000,-80.00,180.00,-27.00,CLOSED,0
672420.487,0,0,1,1.000,1.000,1.000,-79.78,180.00,-27.00,CLOSED,0
672420.491,0,0,1,1.000,1.000,1.000,-79.57,180.00,-27.00,CLOSED,0
672420.495,0,0,1,1.000,1.000,1.000,-79.35,180.00,-27.00,CLOSED,0
672420.498,0,0,1,1.000,1.000,1.000,-79.12,180.00,-27.00,CLOSED,0
672420.502,0,0,1,1.000,1.000,1.000,-78.88,180.00,-27.00,CLOSED,0
672420.506,0,0,1,1.000,1.000,1.000,-78.65,180.00,-27.00,CLOSED,0
672420.510,0,0,1,1.000,1.000,1.000,-78.41,180.00,-27.00,CLOSED,0
672420.514,0,0,1,1.000,1.000,1.000,-78.16,180.00,-27.00,CLOSED,0
672420.518,0,0,1,1.000,1.000,1.000,-77.94,180.00,-27.00,CLOSED,0
672420.522,0,0,1,1.000,1.000,1.000,-77.70,180.00,-27.00,CLOSED,0
672420.526,0,0,1,1.000,1.000,1.000,-77.49,180.00,-27.00,CLOSED,0
672420.529,0,0,1,1.000,1.000,1.000,-77.27,180.00,-27.00,CLOSED,1
672420.533,0,0,1,1.000,1.000,1.000,-77.06,180.00,-27.00,CLOSED,0
672420.536,0,0,1,1.000,1.000,1.000,-76.84,180.00,-27.00,CLOSED,0
672420.540,0,0,1,1.000,1.000,1.000,-76.60,180.00,-27.00,CLOSED,0
672420.544,0,0,1,1.000,1.000,1.000,-76.38,180.00,-27.00,CLOSED,0
672420.548,0,0,1,1.000,1.000,1.000,-76.16,180.00,-27.00,CLOSED,0
672420.551,0,0,1,1.000,1.000,1.000,-75.94,180.00,-27.00,CLOSED,0
672420.555,0,0,1,1.000,1.000,1.000,-75.69,180.00,-27.00,CLOSED,0
672420.560,0,0,1,1.000,1.000,1.000,-75.44,180.00,-27.00,CLOSED,0
672420.564,0,0,1,1.000,1.000,1.000,-75.19,180.00,-27.00,CLOSED,0
672420.569,0,0,1,1.000,1.000,1.000,-74.91,180.00,-27.00,CLOSED,0
672420.573,0,0,1,1.000,1.000,1.000,-74.66,180.00,-27.00,CLOSED,0
672420.577,0,0,1,1.000,1.000,1.000,-74.42,180.00,-27.00,CLOSED,0
672420.581,0,0,1,1.000,1.000,1.000,-74.15,180.00,-27.00,CLOSED,0
672420.586,0,0,1,1.000,1.000,1.000,-73.84,180.00,-27.00,CLOSED,0
672420.592,0,0,1,1.000,1.000,1.000,-73.51,180.00,-27.00,CLOSED,0
672420.597,0,0,1,1.000,1.000,1.000,-73.20,180.00,-27.00,CLOSED,0
672420.601,0,0,1,1.000,1.000,1.000,-72.93,180.00,-27.00,CLOSED,0
672420.606,0,0,1,1.000,1.000,1.000,-72.66,180.00,-27.00,CLOSED,0
672420.610,0,0,1,1.000,1.000,1.000,-72.43,180.00,-27.00,CLOSED,0
672420.614,0,0,1,1.000,1.000,1.000,-72.19,180.00,-27.00,CLOSED,0
672420.618,0,0,1,1.000,1.000,1.000,-71.96,180.00,-27.00,CLOSED,0
672420.622,0,0,1,1.000,1.000,1.000,-71.73,180.00,-27.00,CLOSED,0
672420.626,0,0,1,1.000,1.000,1.000,-71.49,180.00,-27.00,CLOSED,0
672420.629,0,0,1,1.000,1.000,1.000,-71.27,180.00,-27.00,CLOSED,1
672420.633,0,0,1,1.000,1.000,1.000,-71.05,180.00,-27.00,CLOSED,0
672420.637,0,0,1,1.000,1.000,1.000,-70.82,180.00,-27.00,CLOSED,0
672420.640,0,0,1,1.000,1.000,1.000,-70.61,180.00,-27.00,CLOSED,0
672420.644,0,0,1,1.000,1.000,1.000,-70.38,180.00,-27.00,CLOSED,0
672420.647,0,0,1,1.000,1.000,1.000,-70.17,180.00,-27.00,CLOSED,0
672420.651,0,0,1,1.000,1.000,1.000,-69.96,180.00,-27.00,CLOSED,0
672420.655,0,0,1,1.000,1.000,1.000,-69.72,180.00,-27.00,CLOSED,0
672420.659,0,0,1,1.000,1.000,1.000,-69.51,180.00,-27.00,CLOSED,0
672420.662,0,0,1,1.000,1.000,1.000,-69.27,180.00,-27.00,CLOSED,0
672420.667,0,0,1,1.000,1.000,1.000,-69.02,180.00,-27.00,CLOSED,0
672420.670,0,0,1,1.000,1.000,1.000,-68.80,180.00,-27.00,CLOSED,0
672420.674,0,0,1,1.000,1.000,1.000,-68.58,180.00,-27.00,CLOSED,0
672420.678,0,0,1,1.000,1.000,1.000,-68.33,180.00,-27.00,CLOSED,0
672420.683,0,0,1,1.000,1.000,1.000,-68.01,180.00,-27.00,CLOSED,0
672420.688,0,0,1,1.000,1.000,1.000,-67.72,180.00,-27.00,CLOSED,0
672420.693,0,0,1,1.000,1.000,1.000,-67.43,180.00,-27.00,CLOSED,0
672420.699,0,0,1,1.000,1.000,1.000,-67.07,180.00,-27.00,CLOSED,0
672420.704,0,0,1,1.000,1.000,1.000,-66.79,180.00,-27.00,CLOSED,0
672420.708,0,0,1,1.000,1.000,1.000,-66.55,180.00,-27.00,CLOSED,0
672420.712,0,0,1,1.000,1.000,1.000,-66.31,180.00,-27.00,CLOSED,0
672420.716,0,0,1,1.000,1.000,1.000,-66.07,180.00,-27.00,CLOSED,0
672420.720,0,0,1,1.000,1.000,1.000,-65.84,180.00,-27.00,CLOSED,0
672420.723,0,0,1,1.000,1.000,1.000,-65.62,180.00,-27.00,CLOSED,0
672420.727,0,0,1,1.000,1.000,1.000,-65.41,180.00,-27.00,CLOSED,0
672420.730,0,0,1,1.000,1.000,1.000,-65.19,180.00,-27.00,CLOSED,1
672420.734,0,0,1,1.000,1.000,1.000,-64.97,180.00,-27.00,CLOSED,0
672420.738,0,0,1,1.000,1.000,1.000,-64.75,180.00,-27.00,CLOSED,0
672420.741,0,0,1,1.000,1.000,1.000,-64.53,180.00,-27.00,CLOSED,0
672420.745,0,0,1,1.000,1.000,1.000,-64.31,180.00,-27.00,CLOSED,0
672420.749,0,0,1,1.000,1.000,1.000,-64.06,180.00,-27.00,CLOSED,0
672420.753,0,0,1,1.000,1.000,1.000,-63.83,180.00,-27.00,CLOSED,0
672420.757,0,0,1,1.000,1.000,1.000,-63.60,180.00,-27.00,CLOSED,0
672420.761,0,0,1,1.000,1.000,1.000,-63.37,180.00,-27.00,CLOSED,0
672420.765,0,0,1,1.000,1.000,1.000,-63.14,180.00,-27.00,CLOSED,0
672420.768,0,0,1,1.000,1.000,1.000,-62.92,180.00,-27.00,CLOSED,0
672420.773,0,0,1,1.000,1.000,1.000,-62.64,180.00,-27.00,CLOSED,0
672420.778,0,0,1,1.000,1.000,1.000,-62.37,180.00,-27.00,CLOSED,0
672420.783,0,0,1,1.000,1.000,1.000,-62.04,180.00,-27.00,CLOSED,0
672420.789,0,0,1,1.000,1.000,1.000,-61.70,180.00,-27.00,CLOSED,0
672420.794,0,0,1,1.000,1.000,1.000,-61.35,180.00,-27.00,CLOSED,0
672420.800,0,0,1,1.000,1.000,1.000,-61.01,180.00,-27.00,CLOSED,0
672420.805,0,0,1,1.000,1.000,1.000,-60.69,180.00,-27.00,CLOSED,0
672420.811,0,0,1,1.000,1.000,1.000,-60.38,180.00,-27.00,CLOSED,0
672420.816,0,0,1,1.000,1.000,1.000,-60.07,180.00,-27.00,CLOSED,0
672420.822,0,0,1,1.000,1.000,1.000,-59.70,180.00,-27.00,CLOSED,0
672420.827,0,0,1,1.000,1.000,1.000,-59.40,180.00,-27.00,CLOSED,0
672420.831,0,0,1,1.000,1.000,1.000,-59.15,180.00,-27.00,CLOSED,1
672420.835,0,0,1,1.000,1.000,1.000,-58.91,180.00,-27.00,CLOSED,0
672420.839,0,0,1,1.000,1.000,1.000,-58.69,180.00,-27.00,CLOSED,0
672420.842,0,0,1,1.000,1.000,1.000,-58.47,180.00,-27.00,CLOSED,0
672420.846,0,0,1,1.000,1.000,1.000,-58.25,180.00,-27.00,CLOSED,0
672420.850,0,0,1,1.000,1.000,1.000,-58.04,180.00,-27.00,CLOSED,0
672420.853,0,0,1,1.000,1.000,1.000,-57.82,180.00,-27.00,CLOSED,0
672420.857,0,0,1,1.000,1.000,1.000,-57.60,180.00,-27.00,CLOSED,0
672420.861,0,0,1,1.000,1.000,1.000,-57.37,180.00,-27.00,CLOSED,0
672420.865,0,0,1,1.000,1.000,1.000,-57.13,180.00,-27.00,CLOSED,0
672420.869,0,0,0,1.000,1.000,1.000,-57.39,180.00,-27.00,CLOSED,0
672420.873,0,0,0,1.000,1.000,1.000,-57.62,180.00,-27.00,CLOSED,0
672420.876,0,0,0,1.000,1.000,1.000,-57.83,180.00,-27.00,CLOSED,0
672420.880,0,0,0,1.000,1.000,1.000,-58.04,180.00,-27.00,CLOSED,0
672420.883,0,0,0,1.000,1.000,1.000,-58.26,180.00,-27.00,CLOSED,0
672420.887,0,0,0,0.999,1.000,1.000,-58.47,180.00,-27.00,CLOSED,0
672420.891,0,0,0,1.000,1.000,1.000,-58.68,180.00,-27.00,CLOSED,0
672420.895,0,0,0,0.999,0.985,1.000,-58.94,180.00,-27.00,CLOSED,0
672420.900,0,0,0,1.000,0.997,0.988,-59.24,180.00,-27.00,CLOSED,0
672420.905,0,0,0,0.997,1.000,0.522,-59.55,180.00,-27.00,CLOSED,0
672420.910,0,0,0,0.988,1.000,0.916,-59.84,180.00,-27.00,CLOSED,0
672420.916,0,0,0,0.988,1.000,0.968,-60.21,180.00,-27.00,CLOSED,0
672420.921,0,0,0,0.984,1.000,0.974,-60.52,180.00,-27.00,CLOSED,0
672420.926,0,0,0,0.990,1.000,0.974,-60.82,180.00,-27.00,CLOSED,0
672420.931,0,0,0,0.993,1.000,0.976,-61.08,180.00,-27.00,CLOSED,0
672420.935,0,0,0,0.994,1.000,0.962,-61.35,180.00,-27.00,CLOSED,1
672420.939,0,0,0,0.996,1.000,0.967,-61.61,180.00,-27.00,CLOSED,0
672420.944,0,0,0,1.000,1.000,0.968,-61.89,180.00,-27.00,CLOSED,0
672420.948,0,0,0,1.000,1.000,0.942,-62.14,180.00,-27.00,CLOSED,0
672420.952,0,0,0,1.000,1.000,0.924,-62.37,180.00,-27.00,CLOSED,0
672420.956,0,0,0,1.000,1.000,0.954,-62.59,180.00,-27.00,CLOSED,0
672420.959,0,0,0,1.000,1.000,0.982,-62.81,180.00,-27.00,CLOSED,0
672420.963,0,0,0,1.000,1.000,0.996,-63.02,180.00,-27.00,CLOSED,0
672420.966,0,0,0,1.000,1.000,1.000,-63.23,180.00,-27.00,CLOSED,0
672420.970,0,0,0,1.000,1.000,1.000,-63.45,180.00,-27.00,CLOSED,0
672420.974,0,0,0,1.000,1.000,1.000,-63.67,180.00,-27.00,CLOSED,0
672420.977,0,0,0,1.000,1.000,1.000,-63.89,180.00,-27.00,CLOSED,0
672420.981,0,0,0,1.000,1.000,1.000,-64.12,180.00,-27.00,CLOSED,0
672420.985,0,0,0,1.000,1.000,1.000,-64.35,180.00,-27.00,CLOSED,0
672420.989,0,0,0,1.000,1.000,1.000,-64.57,180.00,-27.00,CLOSED,0
672420.993,0,0,0,1.000,0.999,1.000,-64.81,180.00,-27.00,CLOSED,0
672420.996,0,0,0,1.000,0.991,1.000,-65.04,180.00,-27.00,CLOSED,0
672421.001,0,0,0,1.000,0.974,1.000,-65.28,180.00,-27.00,CLOSED,0
672421.004,0,0,0,1.000,0.942,1.000,-65.52,180.00,-27.00,CLOSED,0
672421.008,0,0,0,1.000,0.925,1.000,-65.75,180.00,-27.00,CLOSED,0
672421.013,0,0,0,1.000,0.880,1.000,-66.00,180.00,-27.00,CLOSED,0
672421.016,0,0,0,1.000,0.821,1.000,-66.22,180.00,-27.00,CLOSED,0
672421.020,0,0,0,1.000,0.805,1.000,-66.43,180.00,-27.00,CLOSED,0
672421.023,0,0,0,0.999,0.958,1.000,-66.64,180.00,-27.00,CLOSED,0
672421.027,0,0,0,0.999,0.995,1.000,-66.87,180.00,-27.00,CLOSED,0
672421.031,0,0,0,0.999,0.999,1.000,-67.09,180.00,-27.00,CLOSED,0
672421.036,0,0,0,0.998,1.000,1.000,-67.39,180.00,-27.00,CLOSED,1
672421.041,0,0,0,1.000,1.000,1.000,-67.70,180.00,-27.00,CLOSED,0
672421.045,0,0,0,1.000,1.000,1.000,-67.95,180.00,-27.00,CLOSED,0
672421.050,0,0,0,1.000,1.000,1.000,-68.23,180.00,-27.00,CLOSED,0
672421.055,0,0,0,1.000,1.000,1.000,-68.53,180.00,-27.00,CLOSED,0
672421.059,0,0,0,1.000,1.000,1.000,-68.80,180.00,-27.00,CLOSED,0
672421.064,0,0,0,1.000,1.000,1.000,-69.07,180.00,-27.00,CLOSED,0
672421.068,0,0,0,1.000,1.000,1.000,-69.32,180.00,-27.00,CLOSED,0
672421.072,0,0,0,1.000,1.000,1.000,-69.57,180.00,-27.00,CLOSED,0
672421.076,0,0,0,1.000,1.000,1.000,-69.82,180.00,-27.00,CLOSED,0
672421.080,0,0,0,1.000,1.000,1.000,-70.07,180.00,-27.00,CLOSED,0
672421.085,0,0,0,1.000,1.000,1.000,-70.33,180.00,-27.00,CLOSED,0
672421.089,0,0,0,1.000,1.000,1.000,-70.58,180.00,-27.00,CLOSED,0
672421.093,0,0,0,1.000,1.000,1.000,-70.85,180.00,-27.00,CLOSED,0
672421.098,0,0,0,1.000,1.000,1.000,-71.15,180.00,-27.00,CLOSED,0
672421.103,0,0,0,1.000,1.000,1.000,-71.41,180.00,-27.00,CLOSED,0
672421.107,0,0,0,1.000,1.000,1.000,-71.65,180.00,-27.00,CLOSED,0
672421.110,0,0,0,1.000,1.000,1.000,-71.88,180.00,-27.00,CLOSED,0
672421.114,0,0,0,1.000,1.000,1.000,-72.10,180.00,-27.00,CLOSED,0
672421.118,0,0,0,1.000,1.000,1.000,-72.33,180.00,-27.00,CLOSED,0
672421.122,0,0,0,1.000,1.000,1.000,-72.54,180.00,-27.00,CLOSED,0
672421.125,0,0,0,1.000,1.000,1.000,-72.77,180.00,-27.00,CLOSED,0
672421.129,0,0,0,1.000,1.000,1.000,-72.98,180.00,-27.00,CLOSED,0
672421.132,0,0,0,1.000,1.000,1.000,-73.19,180.00,-27.00,CLOSED,0
672421.136,0,0,0,1.000,1.000,1.000,-73.43,180.00,-27.00,CLOSED,1
672421.140,0,0,0,1.000,1.000,1.000,-73.68,180.00,-27.00,CLOSED,0
672421.145,0,0,0,1.000,1.000,1.000,-73.97,180.00,-27.00,CLOSED,0
672421.151,0,0,0,1.000,1.000,1.000,-74.30,180.00,-27.00,CLOSED,0
672421.156,0,0,0,1.000,1.000,1.000,-74.63,180.00,-27.00,CLOSED,0
672421.162,0,0,0,1.000,1.000,1.000,-74.95,180.00,-27.00,CLOSED,0
672421.168,0,0,0,1.000,1.000,1.000,-75.34,180.00,-27.00,CLOSED,0
672421.173,0,0,0,1.000,1.000,1.000,-75.61,180.00,-27.00,CLOSED,0
672421.178,0,0,0,1.000,1.000,1.000,-75.90,180.00,-27.00,CLOSED,0
672421.183,0,0,0,1.000,1.000,1.000,-76.23,180.00,-27.00,CLOSED,0
672421.188,0,0,0,1.000,1.000,1.000,-76.51,180.00,-27.00,CLOSED,0
672421.192,0,0,0,1.000,1.000,1.000,-76.74,180.00,-27.00,CLOSED,0
672421.195,0,0,0,1.000,1.000,1.000,-76.98,180.00,-27.00,CLOSED,0
672421.199,0,0,0,1.000,1.000,1.000,-77.19,180.00,-27.00,CLOSED,0
672421.203,0,0,0,1.000,1.000,1.000,-77.41,180.00,-27.00,CLOSED,0
672421.206,0,0,0,1.000,1.000,1.000,-77.63,180.00,-27.00,CLOSED,0
672421.210,0,0,0,1.000,1.000,1.000,-77.84,180.00,-27.00,CLOSED,0
672421.214,0,0,0,1.000,1.000,1.000,-78.07,180.00,-27.00,CLOSED,0
672421.217,0,0,0,1.000,1.000,1.000,-78.30,180.00,-27.00,CLOSED,0
672421.221,0,0,0,1.000,1.000,1.000,-78.53,180.00,-27.00,CLOSED,0
672421.225,0,0,0,1.000,1.000,1.000,-78.75,180.00,-27.00,CLOSED,0
672421.229,0,0,0,1.000,1.000,1.000,-78.99,180.00,-27.00,CLOSED,0
672421.233,0,0,0,1.000,1.000,1.000,-79.22,180.00,-27.00,CLOSED,0
672421.237,0,0,0,1.000,1.000,1.000,-79.44,180.00,-27.00,CLOSED,1
672421.240,0,0,0,1.000,1.000,1.000,-79.68,180.00,-27.00,CLOSED,0
672421.244,0,0,0,1.000,1.000,1.000,-79.92,180.00,-27.00,CLOSED,0
672421.248,0,0,0,1.000,1.000,1.000,-80.15,180.00,-27.00,CLOSED,0
672421.252,0,0,0,1.000,1.000,1.000,-80.38,180.00,-27.00,CLOSED,0
672421.256,0,0,0,1.000,1.000,1.000,-80.64,180.00,-27.00,CLOSED,0
672421.261,0,0,0,1.000,1.000,1.000,-80.88,180.00,-27.00,CLOSED,0
672421.264,0,0,0,1.000,1.000,1.000,-81.11,180.00,-27.00,CLOSED,0
672421.268,0,0,0,1.000,1.000,1.000,-81.34,180.00,-27.00,CLOSED,0
672421.272,0,0,0,1.000,1.000,1.000,-81.57,180.00,-27.00,CLOSED,0
672421.276,0,0,0,1.000,1.000,1.000,-81.79,180.00,-27.00,CLOSED,0
672421.279,0,0,0,1.000,1.000,1.000,-82.01,180.00,-27.00,CLOSED,0
672421.283,0,0,0,1.000,1.000,1.000,-82.24,180.00,-27.00,CLOSED,0
672421.287,0,0,0,1.000,1.000,1.000,-82.47,180.00,-27.00,CLOSED,0
672421.291,0,0,0,1.000,1.000,1.000,-82.72,180.00,-27.00,CLOSED,0
672421.296,0,0,0,1.000,1.000,1.000,-82.99,180.00,-27.00,CLOSED,0
672421.300,0,0,0,1.000,1.000,1.000,-83.26,180.00,-27.00,CLOSED,0
672421.304,0,0,0,1.000,1.000,1.000,-83.52,180.00,-27.00,CLOSED,0
672421.308,0,0,0,1.000,1.000,1.000,-83.74,180.00,-27.00,CLOSED,0
672421.312,0,0,0,1.000,1.000,1.000,-83.95,180.00,-27.00,CLOSED,0
672421.316,0,0,0,1.000,1.000,1.000,-84.18,180.00,-27.00,CLOSED,0
672421.319,0,0,0,1.000,1.000,1.000,-84.40,180.00,-27.00,CLOSED,0
672421.323,0,0,0,1.000,1.000,1.000,-84.64,180.00,-27.00,CLOSED,0
672421.327,0,0,0,1.000,1.000,1.000,-84.90,180.00,-27.00,CLOSED,0
672421.332,0,0,0,1.000,1.000,1.000,-85.18,180.00,-27.00,CLOSED,0
672421.337,0,0,0,1.000,1.000,1.000,-85.48,180.00,-27.00,CLOSED,1
672421.342,0,0,0,1.000,1.000,1.000,-85.78,180.00,-27.00,CLOSED,0
672421.347,0,0,0,1.000,1.000,1.000,-86.08,180.00,-27.00,CLOSED,0
672421.352,0,0,0,1.000,1.000,1.000,-86.36,180.00,-27.00,CLOSED,0
672421.356,0,0,0,1.000,1.000,1.000,-86.63,180.00,-27.00,CLOSED,0
672421.361,0,0,0,1.000,1.000,1.000,-86.89,180.00,-27.00,CLOSED,0
672421.367,0,0,0,1.000,1.000,1.000,-87.26,180.00,-27.00,CLOSED,0
672421.372,0,0,0,1.000,1.000,1.000,-87.58,180.00,-27.00,CLOSED,0
672421.376,0,0,0,1.000,1.000,1.000,-87.82,180.00,-27.00,CLOSED,0
672421.380,0,0,0,1.000,1.000,1.000,-88.06,180.00,-27.00,CLOSED,0
672421.384,0,0,0,1.000,1.000,1.000,-88.31,180.00,-27.00,CLOSED,0
672421.389,0,0,0,1.000,1.000,1.000,-88.57,180.00,-27.00,CLOSED,0
672421.393,0,0,0,1.000,1.000,1.000,-88.80,180.00,-27.00,CLOSED,0
672421.396,0,0,0,1.000,1.000,1.000,-89.02,180.00,-27.00,CLOSED,0
672421.400,0,0,0,1.000,1.000,1.000,-89.23,180.00,-27.00,CLOSED,0
672421.403,0,0,0,1.000,1.000,1.000,-89.45,180.00,-27.00,CLOSED,0
672421.407,0,0,0,1.000,1.000,1.000,-89.66,180.00,-27.00,CLOSED,0
672421.411,0,0,0,1.000,1.000,1.000,-89.89,180.00,-27.00,CLOSED,0
672421.415,0,0,0,1.000,1.000,1.000,-90.00,180.00,-27.00,CLOSED,0
672421.420,0,0,0,1.000,1.000,1.000,-90.00,180.00,-27.00,CLOSED,0
672421.424,0,0,0,1.000,1.000,1.000,-90.00,180.00,-27.00,CLOSED,0
672421.428,0,0,0,1.000,1.000,1.000,-90.00,180.00,-27.00,CLOSED,0
672421.433,0,0,0,1.000,0.999,1.000,-90.00,180.00,-27.00,CLOSED,0
672421.436,0,1,0,1.000,0.995,1.000,-90.00,179.76,-27.00,CLOSED,0
672421.440,0,1,0,1.000,0.975,1.000,-90.00,179.52,-27.00,CLOSED,1
672421.444,0,1,1,1.000,0.857,0.999,-89.77,179.29,-27.00,CLOSED,0
672421.448,0,1,1,1.000,0.741,0.998,-89.53,179.05,-27.00,CLOSED,0
672421.452,0,1,1,1.000,0.639,0.992,-89.30,178.83,-27.00,CLOSED,0
672421.456,0,1,1,0.999,0.914,0.968,-89.04,178.56,-27.00,CLOSED,0
672421.462,0,1,1,0.999,0.976,0.877,-88.69,178.21,-27.00,CLOSED,0
672421.468,0,1,1,0.999,0.990,0.686,-88.34,177.86,-27.00,CLOSED,0
672421.474,0,1,1,0.998,0.996,0.554,-88.00,177.52,-27.00,CLOSED,0
672421.480,0,1,1,0.999,0.992,0.619,-87.63,177.15,-27.00,CLOSED,0
672421.485,0,1,1,0.999,0.995,0.804,-87.32,176.85,-27.00,CLOSED,0
672421.489,0,1,1,0.999,1.000,0.941,-87.07,176.60,-27.00,CLOSED,0
672421.493,0,1,1,1.000,1.000,0.996,-86.83,176.36,-27.00,CLOSED,0
672421.497,0,1,1,1.000,1.000,0.996,-86.60,176.13,-27.00,CLOSED,0
672421.501,0,1,1,1.000,1.000,0.999,-86.38,175.90,-27.00,CLOSED,0
672421.505,0,1,1,1.000,1.000,0.999,-86.15,175.67,-27.00,CLOSED,0
672421.508,0,1,1,1.000,1.000,0.998,-85.93,175.46,-27.00,CLOSED,0
672421.512,0,1,1,1.000,1.000,0.998,-85.72,175.24,-27.00,CLOSED,0
672421.516,0,1,1,1.000,1.000,0.995,-85.49,175.01,-27.00,CLOSED,0
672421.519,0,1,1,1.000,1.000,0.988,-85.27,174.79,-27.00,CLOSED,0
672421.523,0,1,1,1.000,1.000,0.554,-85.05,174.57,-27.00,CLOSED,0
672421.527,0,1,1,1.000,0.998,0.952,-84.83,174.36,-27.00,CLOSED,0
672421.531,0,1,1,1.000,0.994,0.942,-84.60,174.12,-27.00,CLOSED,0
672421.535,0,1,1,1.000,0.986,0.952,-84.31,173.83,-27.00,CLOSED,0
672421.540,0,1,1,1.000,0.926,0.977,-84.04,173.56,-27.00,CLOSED,0
672421.545,0,1,1,1.000,0.668,0.982,-83.72,173.25,-27.00,CLOSED,1
672421.550,0,1,1,1.000,0.990,0.994,-83.43,172.96,-27.00,CLOSED,0
672421.554,0,1,1,1.000,1.000,0.994,-83.16,172.68,-27.00,CLOSED,0
672421.559,0,1,1,1.000,1.000,0.995,-82.89,172.41,-27.00,CLOSED,0
672421.563,0,1,1,1.000,1.000,0.979,-82.65,172.17,-27.00,CLOSED,0
672421.567,0,1,1,1.000,1.000,0.965,-82.39,171.91,-27.00,CLOSED,0
672421.571,0,1,1,1.000,1.000,0.951,-82.18,171.70,-27.00,CLOSED,0
672421.575,0,1,1,1.000,0.998,0.823,-81.93,171.45,-27.00,CLOSED,0
672421.579,0,1,1,1.000,0.991,0.642,-81.69,171.21,-27.00,CLOSED,0
672421.583,0,1,1,1.000,0.915,0.775,-81.45,170.97,-27.00,CLOSED,0
672421.589,0,1,1,1.000,0.762,0.873,-81.10,170.62,-27.00,CLOSED,0
672421.593,0,1,1,1.000,0.502,0.918,-80.88,170.40,-27.00,CLOSED,0
672421.597,0,1,1,1.000,0.719,0.947,-80.63,170.16,-27.00,CLOSED,0
672421.601,0,1,1,1.000,0.862,0.970,-80.37,169.89,-27.00,CLOSED,0
672421.606,0,1,1,1.000,0.974,0.993,-80.09,169.61,-27.00,CLOSED,0
672421.610,0,1,1,1.000,0.996,0.998,-79.82,169.34,-27.00,CLOSED,0
672421.615,0,1,1,1.000,0.999,0.999,-79.55,169.07,-27.00,CLOSED,0
672421.619,0,1,1,1.000,1.000,1.000,-79.29,168.81,-27.00,CLOSED,0
672421.623,0,1,1,1.000,1.000,1.000,-79.04,168.56,-27.00,CLOSED,0
672421.627,0,1,1,1.000,1.000,1.000,-78.80,168.32,-27.00,CLOSED,0
672421.631,0,1,1,1.000,1.000,1.000,-78.56,168.08,-27.00,CLOSED,0
672421.636,0,1,1,1.000,1.000,1.000,-78.29,167.81,-27.00,CLOSED,0
672421.640,0,1,1,1.000,1.000,1.000,-78.04,167.56,-27.00,CLOSED,0
672421.644,0,1,1,1.000,1.000,1.000,-77.78,167.30,-27.00,CLOSED,0
672421.648,0,1,1,1.000,1.000,1.000,-77.54,167.07,-27.00,CLOSED,1
672421.652,0,1,1,1.000,1.000,1.000,-77.33,166.85,-27.00,CLOSED,0
672421.655,0,1,1,1.000,1.000,1.000,-77.11,166.63,-27.00,CLOSED,0
672421.659,0,1,1,1.000,1.000,1.000,-76.88,166.40,-27.00,CLOSED,0
672421.664,0,1,1,1.000,1.000,1.000,-76.62,166.14,-27.00,CLOSED,0
672421.668,0,1,1,1.000,1.000,1.000,-76.34,165.86,-27.00,CLOSED,0
672421.673,0,1,1,1.000,1.000,1.000,-76.08,165.60,-27.00,CLOSED,0
672421.677,0,1,1,1.000,1.000,1.000,-75.80,165.32,-27.00,CLOSED,0
672421.682,0,1,1,1.000,1.000,1.000,-75.50,165.03,-27.00,CLOSED,0
672421.686,0,1,1,1.000,1.000,1.000,-75.25,164.77,-27.00,CLOSED,0
672421.690,0,1,1,1.000,1.000,1.000,-75.00,164.52,-27.00,CLOSED,0
672421.695,0,1,1,1.000,1.000,1.000,-74.75,164.28,-27.00,CLOSED,0
672421.699,0,1,1,1.000,1.000,1.000,-74.51,164.03,-27.00,CLOSED,0
672421.703,0,1,1,1.000,1.000,1.000,-74.26,163.78,-27.00,CLOSED,0
672421.710,0,1,1,1.000,1.000,1.000,-73.83,163.35,-27.00,CLOSED,0
672421.722,0,1,1,1.000,1.000,1.000,-73.13,162.65,-27.00,CLOSED,0
672421.734,0,1,1,1.000,1.000,1.000,-72.38,161.90,-27.00,CLOSED,0
672421.744,0,1,1,1.000,1.000,1.000,-71.77,161.29,-27.00,CLOSED,0
672421.750,0,1,1,1.000,1.000,1.000,-71.41,160.93,-27.00,CLOSED,1
672421.758,0,1,1,1.000,1.000,1.000,-70.95,160.48,-27.00,CLOSED,0
672421.764,0,1,1,1.000,1.000,1.000,-70.59,160.11,-27.00,CLOSED,0
672421.769,0,1,1,1.000,1.000,1.000,-70.28,159.81,-27.00,CLOSED,0
672421.774,0,1,1,1.000,1.000,1.000,-69.99,159.51,-27.00,CLOSED,0
672421.778,0,1,1,1.000,1.000,1.000,-69.72,159.24,-27.00,CLOSED,0
672421.783,0,1,1,1.000,1.000,1.000,-69.45,158.97,-27.00,CLOSED,0
672421.788,0,1,1,1.000,1.000,1.000,-69.14,158.66,-27.00,CLOSED,0
672421.793,0,1,1,1.000,1.000,1.000,-68.83,158.35,-27.00,CLOSED,0
672421.798,0,1,1,1.000,1.000,1.000,-68.56,158.09,-27.00,CLOSED,0
672421.802,0,1,1,1.000,1.000,1.000,-68.30,157.83,-27.00,CLOSED,0
672421.806,0,1,1,1.000,1.000,1.000,-68.06,157.58,-27.00,CLOSED,0
672421.810,0,1,1,1.000,1.000,1.000,-67.81,157.34,-27.00,CLOSED,0
672421.815,0,1,1,1.000,1.000,1.000,-67.51,157.03,-27.00,CLOSED,0
672421.820,0,1,1,1.000,1.000,1.000,-67.25,156.78,-27.00,CLOSED,0
672421.824,0,1,1,1.000,1.000,1.000,-66.98,156.50,-27.00,CLOSED,0
672421.829,0,1,1,1.000,1.000,1.000,-66.69,156.22,-27.00,CLOSED,0
672421.834,0,1,1,1.000,1.000,1.000,-66.41,155.93,-27.00,CLOSED,0
672421.838,0,1,1,1.000,1.000,1.000,-66.14,155.67,-27.00,CLOSED,0
672421.843,0,1,1,1.000,1.000,1.000,-65.87,155.40,-27.00,CLOSED,0
672421.847,0,1,1,1.000,1.000,1.000,-65.62,155.14,-27.00,CLOSED,0
672421.851,0,1,1,1.000,1.000,1.000,-65.36,154.89,-27.00,CLOSED,1
672421.855,0,1,1,1.000,1.000,1.000,-65.11,154.63,-27.00,CLOSED,0
672421.860,0,1,1,1.000,1.000,1.000,-64.85,154.37,-27.00,CLOSED,0
672421.864,0,1,1,1.000,1.000,1.000,-64.60,154.12,-27.00,CLOSED,0
672421.868,0,1,1,1.000,1.000,1.000,-64.34,153.87,-27.00,CLOSED,0
672421.872,0,1,1,1.000,1.000,1.000,-64.09,153.61,-27.00,CLOSED,0
672421.876,0,1,1,1.000,1.000,1.000,-63.87,153.39,-27.00,CLOSED,0
672421.880,0,1,1,1.000,1.000,1.000,-63.65,153.17,-27.00,CLOSED,0
672421.883,0,1,1,1.000,1.000,1.000,-63.44,152.96,-27.00,CLOSED,0
672421.887,0,1,1,1.000,1.000,1.000,-63.20,152.72,-27.00,CLOSED,0
672421.891,0,1,1,1.000,1.000,1.000,-62.99,152.51,-27.00,CLOSED,0
672421.895,0,1,1,1.000,1.000,1.000,-62.70,152.23,-27.00,CLOSED,0
672421.902,0,1,1,1.000,1.000,1.000,-62.29,151.82,-27.00,CLOSED,0
672421.909,0,1,1,1.000,1.000,1.000,-61.86,151.39,-27.00,CLOSED,0
672421.917,0,1,1,1.000,1.000,1.000,-61.44,150.96,-27.00,CLOSED,0
672421.923,0,1,1,1.000,1.000,1.000,-61.06,150.59,-27.00,CLOSED,0
672421.928,0,1,1,1.000,1.000,1.000,-60.74,150.26,-27.00,CLOSED,0
672421.935,0,1,1,1.000,1.000,1.000,-60.34,149.86,-27.00,CLOSED,0
672421.940,0,1,1,1.000,1.000,1.000,-60.05,149.57,-27.00,CLOSED,0
672421.944,0,1,1,1.000,1.000,1.000,-59.79,149.31,-27.00,CLOSED,0
672421.948,0,1,1,1.000,1.000,1.000,-59.54,149.07,-27.00,CLOSED,0
672421.952,0,1,1,1.000,1.000,1.000,-59.28,148.81,-27.00,CLOSED,1
672421.956,0,1,1,1.000,1.000,1.000,-59.04,148.57,-27.00,CLOSED,0
672421.960,0,1,1,1.000,1.000,1.000,-58.81,148.33,-27.00,CLOSED,0
672421.965,0,1,1,1.000,1.000,1.000,-58.55,148.07,-27.00,CLOSED,0
672421.969,0,1,1,1.000,1.000,1.000,-58.31,147.83,-27.00,CLOSED,0
672421.973,0,1,1,1.000,1.000,1.000,-58.07,147.59,-27.00,CLOSED,0
672421.976,0,1,1,1.000,1.000,1.000,-57.86,147.38,-27.00,CLOSED,0
672421.980,0,1,1,1.000,1.000,1.000,-57.65,147.17,-27.00,CLOSED,0
672421.983,0,1,1,1.000,1.000,1.000,-57.42,146.94,-27.00,CLOSED,0
672421.987,0,1,1,1.000,1.000,1.000,-57.21,146.73,-27.00,CLOSED,0
672421.990,0,1,1,1.000,1.000,1.000,-57.01,146.53,-27.00,CLOSED,0
672421.994,0,0,1,1.000,1.000,1.000,-56.77,146.77,-27.00,CLOSED,0
672421.999,0,0,1,1.000,1.000,1.000,-56.50,147.04,-27.00,CLOSED,0
672422.003,0,0,1,1.000,1.000,1.000,-56.22,147.32,-27.00,CLOSED,0
672422.008,0,0,1,1.000,1.000,1.000,-55.97,147.58,-27.00,CLOSED,0
672422.012,0,0,0,1.000,1.000,1.000,-56.26,147.86,-27.00,CLOSED,0
672422.017,0,0,0,1.000,1.000,1.000,-56.52,148.13,-27.00,CLOSED,0
672422.022,0,0,0,1.000,1.000,1.000,-56.82,148.42,-27.00,CLOSED,0
672422.027,0,0,0,1.000,1.000,1.000,-57.10,148.71,-27.00,CLOSED,0
672422.031,0,0,0,1.000,1.000,1.000,-57.36,148.97,-27.00,CLOSED,0
672422.035,0,0,0,1.000,1.000,1.000,-57.61,149.21,-27.00,CLOSED,0
672422.038,0,0,0,1.000,1.000,1.000,-57.82,149.43,-27.00,CLOSED,0
672422.042,0,0,0,1.000,1.000,1.000,-58.04,149.65,-27.00,CLOSED,0
672422.046,0,0,0,1.000,1.000,1.000,-58.26,149.87,-27.00,CLOSED,0
672422.050,0,0,0,1.000,1.000,1.000,-58.49,150.09,-27.00,CLOSED,0
672422.053,0,0,0,1.000,1.000,1.000,-58.72,150.33,-27.00,CLOSED,1
672422.057,0,0,0,1.000,1.000,1.000,-58.95,150.56,-27.00,CLOSED,0
672422.061,0,0,0,1.000,1.000,1.000,-59.16,150.77,-27.00,CLOSED,0
672422.064,0,0,0,0.990,1.000,1.000,-59.38,150.98,-27.00,CLOSED,0
672422.068,0,0,0,0.988,1.000,1.000,-59.61,151.21,-27.00,CLOSED,0
672422.072,0,0,0,0.564,1.000,1.000,-59.84,151.45,-27.00,CLOSED,0
672422.076,0,0,0,0.740,1.000,1.000,-60.08,151.69,-27.00,CLOSED,0
672422.080,0,0,0,0.765,1.000,1.000,-60.33,151.94,-27.00,CLOSED,0
672422.085,0,0,0,0.770,1.000,1.000,-60.58,152.19,-27.00,CLOSED,0
672422.089,0,0,0,0.847,1.000,1.000,-60.83,152.44,-27.00,CLOSED,0
672422.093,0,0,0,0.610,1.000,1.000,-61.10,152.71,-27.00,CLOSED,0
672422.097,0,0,0,0.876,1.000,1.000,-61.33,152.93,-27.00,CLOSED,0
672422.101,0,0,0,0.973,1.000,1.000,-61.56,153.16,-27.00,CLOSED,0
672422.105,0,0,0,0.999,1.000,1.000,-61.80,153.40,-27.00,CLOSED,0
672422.108,3,0,0,1.000,1.000,1.000,-62.01,153.62,-27.00,OPEN,0
672422.112,3,0,0,1.000,1.000,1.000,-62.23,153.84,-27.00,OPEN,0
672422.116,3,0,0,1.000,1.000,1.000,-62.45,154.05,-27.00,OPEN,0
672422.120,3,0,0,1.000,1.000,1.000,-62.71,154.32,-27.00,OPEN,0
672422.124,3,0,0,1.000,1.000,1.000,-62.97,154.58,-27.00,OPEN,0
672422.129,3,0,0,1.000,1.000,1.000,-63.24,154.85,-27.00,OPEN,0
672422.134,3,0,0,1.000,0.993,1.000,-63.54,155.15,-27.00,OPEN,0
672422.139,3,0,0,1.000,1.000,1.000,-63.83,155.44,-27.00,OPEN,0
672422.144,3,0,0,1.000,1.000,1.000,-64.12,155.73,-27.00,OPEN,0
672422.149,3,0,0,1.000,1.000,1.000,-64.47,156.07,-27.00,OPEN,0
672422.155,3,0,0,1.000,1.000,1.000,-64.78,156.39,-27.00,OPEN,1
672422.158,3,0,0,1.000,1.000,1.000,-65.02,156.62,-27.00,OPEN,0
672422.162,3,0,0,1.000,1.000,1.000,-65.24,156.85,-27.00,OPEN,0
672422.166,3,0,0,1.000,1.000,1.000,-65.50,157.11,-27.00,OPEN,0
672422.171,3,0,0,1.000,1.000,1.000,-65.75,157.36,-27.00,OPEN,0
672422.175,3,0,0,1.000,1.000,1.000,-66.00,157.61,-27.00,OPEN,0
672422.181,3,0,0,1.000,1.000,1.000,-66.35,157.96,-27.00,OPEN,0
672422.186,3,0,0,1.000,1.000,1.000,-66.64,158.25,-27.00,OPEN,0
672422.190,3,0,0,1.000,1.000,1.000,-66.90,158.51,-27.00,OPEN,0
672422.194,3,0,0,1.000,1.000,1.000,-67.18,158.78,-27.00,OPEN,0
672422.199,3,0,0,1.000,1.000,1.000,-67.46,159.06,-27.00,OPEN,0
672422.204,3,0,0,1.000,1.000,1.000,-67.74,159.34,-27.00,OPEN,0
672422.208,3,0,0,1.000,1.000,1.000,-68.01,159.62,-27.00,OPEN,0
672422.213,3,0,0,1.000,1.000,1.000,-68.28,159.89,-27.00,OPEN,0
672422.218,3,0,0,1.000,1.000,1.000,-68.57,160.18,-27.00,OPEN,0
672422.222,3,0,0,1.000,1.000,1.000,-68.84,160.45,-27.00,OPEN,0
672422.227,3,0,0,1.000,1.000,1.000,-69.11,160.71,-27.00,OPEN,0
672422.231,3,0,0,1.000,1.000,1.000,-69.37,160.98,-27.00,OPEN,0
672422.235,3,0,0,1.000,1.000,1.000,-69.63,161.24,-27.00,OPEN,0
672422.240,3,0,0,1.000,1.000,1.000,-69.89,161.50,-27.00,OPEN,0
672422.244,3,0,0,1.000,1.000,1.000,-70.15,161.75,-27.00,OPEN,0
672422.248,3,0,0,1.000,1.000,1.000,-70.40,162.01,-27.00,OPEN,0
672422.252,3,0,0,1.000,1.000,1.000,-70.66,162.26,-27.00,OPEN,0
672422.257,3,0,0,1.000,1.000,1.000,-70.90,162.51,-27.00,OPEN,1
672422.262,3,0,0,1.000,1.000,1.000,-71.22,162.83,-27.00,OPEN,0
672422.267,3,0,0,1.000,1.000,1.000,-71.53,163.13,-27.00,OPEN,0
672422.271,3,0,0,1.000,1.000,1.000,-71.78,163.39,-27.00,OPEN,0
672422.275,3,0,0,1.000,1.000,1.000,-72.00,163.61,-27.00,OPEN,0
672422.279,3,0,0,1.000,1.000,1.000,-72.22,163.83,-27.00,OPEN,0
672422.282,3,0,0,1.000,1.000,1.000,-72.44,164.05,-27.00,OPEN,0
672422.286,3,0,0,1.000,1.000,1.000,-72.66,164.26,-27.00,OPEN,0
672422.289,3,0,0,1.000,1.000,1.000,-72.87,164.48,-27.00,OPEN,0
672422.293,3,0,0,1.000,1.000,1.000,-73.09,164.70,-27.00,OPEN,0
672422.297,3,0,0,1.000,1.000,1.000,-73.33,164.94,-27.00,OPEN,0
672422.301,3,0,0,1.000,1.000,1.000,-73.57,165.17,-27.00,OPEN,0
672422.305,3,0,0,1.000,1.000,1.000,-73.79,165.40,-27.00,OPEN,0
672422.308,3,0,0,1.000,1.000,1.000,-74.02,165.62,-27.00,OPEN,0
672422.312,3,0,0,1.000,1.000,1.000,-74.24,165.85,-27.00,OPEN,0
672422.316,3,0,0,1.000,1.000,1.000,-74.47,166.08,-27.00,OPEN,0
672422.320,3,0,0,1.000,1.000,1.000,-74.71,166.32,-27.00,OPEN,0
672422.324,3,0,0,1.000,1.000,1.000,-74.97,166.58,-27.00,OPEN,0
672422.329,3,0,0,1.000,1.000,1.000,-75.24,166.85,-27.00,OPEN,0
672422.333,3,0,0,1.000,1.000,1.000,-75.49,167.09,-27.00,OPEN,0
672422.337,3,0,0,1.000,1.000,1.000,-75.72,167.33,-27.00,OPEN,0
672422.341,3,0,0,1.000,1.000,1.000,-75.95,167.56,-27.00,OPEN,0
672422.345,3,0,0,1.000,1.000,1.000,-76.18,167.79,-27.00,OPEN,0
672422.348,3,0,0,1.000,1.000,1.000,-76.41,168.01,-27.00,OPEN,0
672422.352,3,0,0,1.000,1.000,1.000,-76.64,168.25,-27.00,OPEN,0
672422.357,3,0,0,1.000,1.000,1.000,-76.90,168.51,-27.00,OPEN,0
672422.361,3,0,0,1.000,1.000,1.000,-77.15,168.76,-27.00,OPEN,1
672422.365,3,0,0,1.000,1.000,1.000,-77.42,169.03,-27.00,OPEN,0
672422.370,3,0,0,1.000,1.000,1.000,-77.73,169.34,-27.00,OPEN,0
672422.375,3,0,0,1.000,1.000,1.000,-78.00,169.60,-27.00,OPEN,0
672422.378,3,0,0,1.000,1.000,1.000,-78.21,169.82,-27.00,OPEN,0
672422.382,3,0,0,1.000,1.000,1.000,-78.43,170.03,-27.00,OPEN,0
672422.385,3,0,0,1.000,1.000,1.000,-78.64,170.25,-27.00,OPEN,0
672422.389,3,0,0,1.000,1.000,1.000,-78.87,170.48,-27.00,OPEN,0
672422.393,3,0,0,1.000,1.000,1.000,-79.10,170.71,-27.00,OPEN,0
672422.398,3,0,0,1.000,1.000,1.000,-79.39,171.00,-27.00,OPEN,0
672422.405,3,0,0,1.000,1.000,1.000,-79.81,171.42,-27.00,OPEN,0
672422.411,3,0,0,1.000,1.000,1.000,-80.16,171.77,-27.00,OPEN,0
672422.416,3,0,0,1.000,1.000,1.000,-80.46,172.07,-27.00,OPEN,0
672422.421,3,0,0,1.000,1.000,1.000,-80.77,172.38,-27.00,OPEN,0
672422.425,3,0,0,1.000,1.000,1.000,-81.04,172.64,-27.00,OPEN,0
672422.430,3,0,0,1.000,1.000,1.000,-81.29,172.90,-27.00,OPEN,0
672422.434,3,0,0,1.000,1.000,1.000,-81.54,173.15,-27.00,OPEN,0
672422.438,3,0,0,1.000,1.000,1.000,-81.81,173.41,-27.00,OPEN,0
672422.442,3,0,0,1.000,1.000,1.000,-82.04,173.65,-27.00,OPEN,0
672422.446,3,0,0,1.000,1.000,1.000,-82.27,173.88,-27.00,OPEN,0
672422.450,3,0,0,1.000,1.000,1.000,-82.49,174.10,-27.00,OPEN,0
672422.454,3,0,0,1.000,1.000,1.000,-82.72,174.33,-27.00,OPEN,0
672422.457,3,0,0,1.000,1.000,1.000,-82.95,174.56,-27.00,OPEN,0
672422.461,3,0,0,1.000,1.000,1.000,-83.19,174.80,-27.00,OPEN,1
672422.465,3,0,0,1.000,1.000,1.000,-83.42,175.02,-27.00,OPEN,0
672422.469,3,0,0,1.000,1.000,1.000,-83.66,175.27,-27.00,OPEN,0
672422.473,3,0,0,1.000,1.000,1.000,-83.89,175.50,-27.00,OPEN,0
672422.477,3,0,0,1.000,1.000,1.000,-84.11,175.72,-27.00,OPEN,0
672422.481,3,0,0,1.000,1.000,1.000,-84.34,175.95,-27.00,OPEN,0
672422.485,3,0,0,1.000,1.000,1.000,-84.59,176.19,-27.00,OPEN,0
672422.489,3,0,0,1.000,1.000,1.000,-84.85,176.46,-27.00,OPEN,0
672422.493,3,0,0,1.000,1.000,1.000,-85.08,176.69,-27.00,OPEN,0
672422.497,3,0,0,1.000,1.000,1.000,-85.32,176.93,-27.00,OPEN,0
672422.501,3,0,0,1.000,1.000,1.000,-85.57,177.17,-27.00,OPEN,0
672422.505,3,0,0,1.000,1.000,1.000,-85.83,177.44,-27.00,OPEN,0
672422.510,3,0,0,1.000,1.000,1.000,-86.11,177.72,-27.00,OPEN,0
672422.515,3,0,0,1.000,1.000,1.000,-86.42,178.03,-27.00,OPEN,0
672422.520,3,0,0,1.000,1.000,1.000,-86.71,178.32,-27.00,OPEN,0
672422.525,3,0,0,1.000,1.000,1.000,-86.99,178.60,-27.00,OPEN,0
672422.530,3,0,0,1.000,1.000,1.000,-87.28,178.89,-27.00,OPEN,0
672422.534,3,0,0,1.000,1.000,1.000,-87.55,179.16,-27.00,OPEN,0
672422.538,3,0,0,1.000,1.000,1.000,-87.81,179.42,-27.00,OPEN,0
672422.543,3,0,0,1.000,1.000,1.000,-88.10,179.70,-27.00,OPEN,0
672422.547,3,0,0,1.000,1.000,1.000,-88.33,179.94,-27.00,OPEN,0
672422.551,3,0,0,1.000,1.000,1.000,-88.55,180.00,-27.00,OPEN,0
672422.554,3,0,0,1.000,1.000,1.000,-88.76,180.00,-27.00,OPEN,0
672422.558,3,0,0,1.000,1.000,1.000,-88.98,180.00,-27.00,OPEN,0
672422.562,3,0,0,1.000,1.000,1.000,-89.21,180.00,-27.00,OPEN,1
672422.565,3,0,0,1.000,1.000,1.000,-89.44,180.00,-27.00,OPEN,0
672422.569,3,0,0,1.000,1.000,1.000,-89.66,180.00,-27.00,OPEN,0
672422.573,3,0,0,1.000,1.000,1.000,-89.89,180.00,-27.00,OPEN,0
672422.577,3,0,0,1.000,1.000,1.000,-90.00,180.00,-27.00,OPEN,0
672422.580,3,0,0,1.000,1.000,1.000,-90.00,180.00,-27.00,OPEN,0
672422.584,3,0,0,1.000,1.000,1.000,-90.00,180.00,-27.00,OPEN,0
672422.588,3,0,0,1.000,1.000,1.000,-90.00,180.00,-27.00,OPEN,0
672422.592,3,0,0,1.000,1.000,1.000,-90.00,180.00,-27.00,OPEN,0
672422.596,3,0,0,1.000,1.000,1.000,-90.00,180.00,-27.00,OPEN,0
672422.601,3,0,0,1.000,1.000,1.000,-90.00,180.00,-27.00,OPEN,0
672422.606,3,0,0,1.000,1.000,1.000,-90.00,180.00,-27.00,OPEN,0
672422.610,3,0,0,1.000,1.000,1.000,-90.00,180.00,-27.00,OPEN,0
672422.614,3,0,0,1.000,1.000,1.000,-90.00,180.00,-27.00,OPEN,0
672422.617,3,0,0,1.000,1.000,1.000,-90.00,180.00,-27.00,OPEN,0
672422.621,3,0,0,0.999,0.999,1.000,-90.00,180.00,-27.00,OPEN,0
672422.625,3,0,0,0.998,0.986,1.000,-90.00,180.00,-27.00,OPEN,0
672422.629,3,0,0,0.987,0.544,1.000,-90.00,180.00,-27.00,OPEN,0
672422.634,3,0,0,0.807,0.859,1.000,-90.00,180.00,-27.00,OPEN,0
672422.638,3,0,0,0.489,0.987,1.000,-90.00,180.00,-27.00,OPEN,0
672422.643,3,0,0,0.795,0.994,1.000,-90.00,180.00,-27.00,OPEN,0
672422.648,3,0,0,0.951,1.000,1.000,-90.00,180.00,-27.00,OPEN,0
672422.652,3,0,0,0.999,1.000,1.000,-90.00,180.00,-27.00,OPEN,0
672422.656,3,0,0,0.999,1.000,1.000,-90.00,180.00,-27.00,OPEN,0
672422.660,3,0,0,1.000,1.000,1.000,-90.00,180.00,-27.00,OPEN,0
672422.664,3,0,0,1.000,1.000,1.000,-90.00,180.00,-27.00,OPEN,1
672422.667,3,0,0,1.000,1.000,1.000,-90.00,180.00,-27.00,OPEN,0
672422.671,0,0,0,1.000,1.000,1.000,-90.00,180.00,-27.00,OPEN,0
672422.674,0,0,0,1.000,1.000,1.000,-90.00,180.00,-27.00,OPEN,0
672422.678,0,0,0,1.000,1.000,1.000,-90.00,180.00,-27.00,OPEN,0
672422.682,0,0,0,1.000,1.000,1.000,-90.00,180.00,-27.00,OPEN,0
672422.685,0,0,0,1.000,1.000,1.000,-90.00,180.00,-27.00,OPEN,0
672422.689,0,0,0,1.000,1.000,1.000,-90.00,180.00,-27.00,OPEN,0
672422.694,0,0,0,1.000,1.000,1.000,-90.00,180.00,-27.00,OPEN,0
672422.700,0,0,0,1.000,1.000,1.000,-90.00,180.00,-27.00,OPEN,0
672422.706,0,0,0,1.000,1.000,1.000,-90.00,180.00,-27.00,OPEN,0
672422.711,0,0,0,1.000,1.000,1.000,-90.00,180.00,-27.00,OPEN,0
672422.716,0,0,0,1.000,1.000,1.000,-90.00,180.00,-27.00,OPEN,0
672422.721,0,0,0,1.000,1.000,1.000,-90.00,180.00,-27.00,OPEN,0
672422.726,0,0,0,1.000,1.000,1.000,-90.00,180.00,-27.00,OPEN,0
672422.731,0,0,0,1.000,1.000,1.000,-90.00,180.00,-27.00,OPEN,0
672422.736,0,0,0,1.000,1.000,1.000,-90.00,180.00,-27.00,OPEN,0
672422.740,0,0,0,1.000,1.000,1.000,-90.00,180.00,-27.00,OPEN,0
672422.744,0,0,0,1.000,1.000,1.000,-90.00,180.00,-27.00,OPEN,0
672422.749,0,0,0,1.000,1.000,1.000,-90.00,180.00,-27.00,OPEN,0
672422.753,0,0,0,1.000,1.000,1.000,-90.00,180.00,-27.00,OPEN,0
672422.757,0,0,0,1.000,1.000,1.000,-90.00,180.00,-27.00,OPEN,0
672422.761,0,0,0,1.000,1.000,1.000,-90.00,180.00,-27.00,OPEN,0
672422.765,0,0,0,1.000,1.000,1.000,-90.00,180.00,-27.00,OPEN,0
672422.769,0,0,0,1.000,1.000,1.000,-90.00,180.00,-27.00,OPEN,0
672422.773,0,0,0,1.000,1.000,1.000,-90.00,180.00,-27.00,OPEN,0
672422.776,0,0,0,1.000,1.000,1.000,-90.00,180.00,-27.00,OPEN,0
672422.780,0,0,0,1.000,1.000,1.000,-90.00,180.00,-27.00,OPEN,0
672422.783,0,0,0,1.000,1.000,1.000,-90.00,180.00,-27.00,OPEN,0
672422.787,0,0,0,1.000,1.000,1.000,-90.00,180.00,-27.00,OPEN,0
672422.792,0,0,0,1.000,1.000,1.000,-90.00,180.00,-27.00,OPEN,0
672422.796,0,0,0,1.000,1.000,1.000,-90.00,180.00,-27.00,OPEN,0
672422.800,0,0,0,1.000,1.000,1.000,-90.00,180.00,-27.00,OPEN,0
672422.804,0,0,0,1.000,1.000,1.000,-90.00,180.00,-27.00,OPEN,0
672422.808,0,0,0,1.000,1.000,1.000,-90.00,180.00,-27.00,OPEN,0
672422.812,0,0,0,1.000,1.000,1.000,-90.00,180.00,-27.00,OPEN,0
672422.816,0,0,0,1.000,1.000,1.000,-90.00,180.00,-27.00,OPEN,0
672422.820,0,0,0,1.000,1.000,1.000,-90.00,180.00,-27.00,OPEN,0
672422.825,0,0,0,1.000,1.000,1.000,-90.00,180.00,-27.00,OPEN,0
672422.830,0,0,0,1.000,1.000,1.000,-90.00,180.00,-27.00,OPEN,0
672422.833,0,0,0,1.000,1.000,1.000,-90.00,180.00,-27.00,OPEN,0
672422.837,0,0,0,1.000,1.000,1.000,-90.00,180.00,-27.00,OPEN,0
672422.840,0,0,0,1.000,1.000,1.000,-90.00,180.00,-27.00,OPEN,0
672422.844,0,0,0,1.000,1.000,1.000,-90.00,180.00,-27.00,OPEN,0
672422.848,0,0,0,1.000,1.000,1.000,-90.00,180.00,-27.00,OPEN,0
672422.853,0,0,0,1.000,1.000,1.000,-90.00,180.00,-27.00,OPEN,0
672422.858,0,0,0,1.000,1.000,1.000,-90.00,180.00,-27.00,OPEN,0
672422.864,0,0,0,1.000,1.000,1.000,-90.00,180.00,-27.00,OPEN,0
672422.871,0,0,0,1.000,1.000,1.000,-90.00,180.00,-27.00,OPEN,0
672422.877,0,0,0,1.000,1.000,1.000,-90.00,180.00,-27.00,OPEN,0
672422.882,0,0,0,1.000,1.000,1.000,-90.00,180.00,-27.00,OPEN,0
672422.887,0,0,0,1.000,1.000,1.000,-90.00,180.00,-27.00,OPEN,0
672422.891,0,0,0,1.000,1.000,1.000,-90.00,180.00,-27.00,OPEN,0
672422.895,0,0,0,1.000,1.000,1.000,-90.00,180.00,-27.00,OPEN,0
672422.898,0,0,0,1.000,1.000,1.000,-90.00,180.00,-27.00,OPEN,0
672422.902,0,0,0,1.000,1.000,1.000,-90.00,180.00,-27.00,OPEN,0
672422.906,0,0,0,1.000,1.000,1.000,-90.00,180.00,-27.00,OPEN,0
672422.910,0,0,0,1.000,1.000,1.000,-90.00,180.00,-27.00,OPEN,0
672422.914,0,0,0,1.000,1.000,1.000,-90.00,180.00,-27.00,OPEN,0
672422.917,0,0,0,1.000,1.000,1.000,-90.00,180.00,-27.00,OPEN,0
672422.921,0,0,0,1.000,1.000,1.000,-90.00,180.00,-27.00,OPEN,0
672422.926,0,0,0,1.000,1.000,1.000,-90.00,180.00,-27.00,OPEN,0
672422.929,0,0,0,1.000,1.000,1.000,-90.00,180.00,-27.00,OPEN,0
672422.934,0,0,0,1.000,1.000,1.000,-90.00,180.00,-27.00,OPEN,0
672422.938,0,0,0,1.000,1.000,1.000,-90.00,180.00,-27.00,OPEN,0
672422.942,0,0,0,1.000,1.000,1.000,-90.00,180.00,-27.00,OPEN,0
672422.946,0,0,0,1.000,1.000,1.000,-90.00,180.00,-27.00,OPEN,0
672422.949,0,0,0,1.000,1.000,1.000,-90.00,180.00,-27.00,OPEN,0
672422.953,0,0,0,1.000,1.000,1.000,-90.00,180.00,-27.00,OPEN,0
672422.957,0,0,0,1.000,1.000,1.000,-90.00,180.00,-27.00,OPEN,0
672422.961,0,0,0,1.000,1.000,1.000,-90.00,180.00,-27.00,OPEN,0
672422.964,0,0,0,1.000,1.000,1.000,-90.00,180.00,-27.00,OPEN,0
672422.968,0,0,0,1.000,1.000,1.000,-90.00,180.00,-27.00,OPEN,0
672422.972,0,0,0,1.000,1.000,1.000,-90.00,180.00,-27.00,OPEN,0
672422.976,0,0,0,1.000,1.000,1.000,-90.00,180.00,-27.00,OPEN,0
672422.980,0,0,0,1.000,1.000,1.000,-90.00,180.00,-27.00,OPEN,0
672422.984,0,0,0,1.000,1.000,1.000,-90.00,180.00,-27.00,OPEN,0
672422.989,0,0,0,1.000,1.000,1.000,-90.00,180.00,-27.00,OPEN,0
672422.993,0,0,0,1.000,1.000,1.000,-90.00,180.00,-27.00,OPEN,0
672422.997,0,0,0,1.000,1.000,1.000,-90.00,180.00,-27.00,OPEN,0
672423.001,0,0,0,1.000,1.000,1.000,-90.00,180.00,-27.00,OPEN,0
672423.005,0,0,0,1.000,1.000,1.000,-90.00,180.00,-27.00,OPEN,0
672423.008,0,0,0,1.000,1.000,1.000,-90.00,180.00,-27.00,OPEN,0
672423.012,0,0,0,1.000,1.000,1.000,-90.00,180.00,-27.00,OPEN,0
672423.017,0,0,0,1.000,1.000,1.000,-90.00,180.00,-27.00,OPEN,0
672423.023,0,0,0,1.000,1.000,1.000,-90.00,180.00,-27.00,OPEN,0
672423.027,0,0,0,1.000,1.000,1.000,-90.00,180.00,-27.00,OPEN,0
672423.031,0,0,0,1.000,1.000,1.000,-90.00,180.00,-27.00,OPEN,0
672423.035,0,0,0,1.000,1.000,1.000,-90.00,180.00,-27.00,OPEN,0
672423.039,0,0,0,1.000,1.000,1.000,-90.00,180.00,-27.00,OPEN,0
672423.044,0,0,0,1.000,1.000,1.000,-90.00,180.00,-27.00,OPEN,0
672423.050,0,0,0,1.000,1.000,1.000,-90.00,180.00,-27.00,OPEN,0
672423.055,0,0,0,1.000,1.000,1.000,-90.00,180.00,-27.00,OPEN,0
