t,hand,elbow,shoulder,p_hand,p_elbow,p_shoulder,J2,J3,J6,grip_state,cmd_sent
671171.976,0,0,0,0.981,1.000,0.999,-90.00,180.00,0.00,OPEN,0
671171.997,0,0,0,0.997,1.000,0.999,-90.00,180.00,0.00,OPEN,0
671172.004,0,0,0,1.000,1.000,0.998,-90.00,180.00,0.00,OPEN,0
671172.014,0,0,0,1.000,1.000,0.999,-90.00,180.00,0.00,OPEN,0
671172.020,0,0,0,1.000,1.000,0.999,-90.00,180.00,0.00,OPEN,0
671172.029,0,0,0,1.000,1.000,0.999,-90.00,180.00,0.00,OPEN,0
671172.033,0,0,0,1.000,1.000,0.999,-90.00,180.00,0.00,OPEN,0
671172.038,0,0,0,1.000,1.000,0.999,-90.00,180.00,0.00,OPEN,0
671172.042,0,0,0,1.000,1.000,0.999,-90.00,180.00,0.00,OPEN,0
671172.046,0,0,0,1.000,1.000,0.999,-90.00,180.00,0.00,OPEN,0
671172.049,0,0,0,1.000,1.000,0.999,-90.00,180.00,0.00,OPEN,0
671172.054,0,0,0,1.000,1.000,0.998,-90.00,180.00,0.00,OPEN,0
671172.058,0,0,0,1.000,1.000,0.998,-90.00,180.00,0.00,OPEN,0
671172.062,0,0,0,1.000,1.000,0.998,-90.00,180.00,0.00,OPEN,0
671172.066,0,0,0,1.000,1.000,0.996,-90.00,180.00,0.00,OPEN,0
671172.070,0,0,0,1.000,1.000,0.995,-90.00,180.00,0.00,OPEN,0
671172.074,0,0,0,1.000,1.000,0.997,-90.00,180.00,0.00,OPEN,0
671172.078,0,0,0,1.000,1.000,0.996,-90.00,180.00,0.00,OPEN,0
671172.082,0,0,0,1.000,1.000,0.997,-90.00,180.00,0.00,OPEN,0
671172.087,0,0,0,1.000,1.000,0.997,-90.00,180.00,0.00,OPEN,0
671172.095,0,0,0,1.000,1.000,0.992,-90.00,180.00,0.00,OPEN,0
671172.102,0,0,0,1.000,1.000,0.988,-90.00,180.00,0.00,OPEN,0
671172.107,0,0,0,1.000,1.000,0.972,-90.00,180.00,0.00,OPEN,0
671172.115,0,0,0,1.000,1.000,0.994,-90.00,180.00,0.00,OPEN,0
671172.120,0,0,0,1.000,1.000,0.996,-90.00,180.00,0.00,OPEN,0
671172.128,0,0,0,1.000,1.000,0.993,-90.00,180.00,0.00,OPEN,0
671172.135,0,0,0,1.000,1.000,0.994,-90.00,180.00,0.00,OPEN,0
671172.143,0,0,0,1.000,1.000,0.993,-90.00,180.00,0.00,OPEN,0
671172.151,0,0,0,1.000,1.000,0.994,-90.00,180.00,0.00,OPEN,0
671172.158,0,0,0,1.000,1.000,0.985,-90.00,180.00,0.00,OPEN,0
671172.164,0,0,0,1.000,1.000,0.889,-90.00,180.00,0.00,OPEN,0
671172.169,0,0,0,1.000,1.000,0.814,-90.00,180.00,0.00,OPEN,0
671172.173,0,0,0,1.000,1.000,0.943,-90.00,180.00,0.00,OPEN,0
671172.177,0,0,0,1.000,1.000,0.984,-90.00,180.00,0.00,OPEN,0
671172.181,0,0,0,1.000,1.000,0.991,-90.00,180.00,0.00,OPEN,0
671172.185,0,0,0,1.000,1.000,0.992,-90.00,180.00,0.00,OPEN,0
671172.189,0,0,0,1.000,1.000,0.995,-90.00,180.00,0.00,OPEN,0
671172.193,0,0,0,1.000,1.000,0.996,-90.00,180.00,0.00,OPEN,0
671172.198,0,0,0,1.000,1.000,0.998,-90.00,180.00,0.00,OPEN,0
671172.203,0,0,0,1.000,1.000,0.998,-90.00,180.00,0.00,OPEN,0
671172.207,0,0,0,1.000,1.000,0.997,-90.00,180.00,0.00,OPEN,0
671172.210,0,0,0,1.000,1.000,0.994,-90.00,180.00,0.00,OPEN,0
671172.215,0,0,0,1.000,1.000,0.994,-90.00,180.00,0.00,OPEN,0
671172.219,0,0,0,1.000,1.000,0.993,-90.00,180.00,0.00,OPEN,0
671172.225,0,0,0,1.000,1.000,0.989,-90.00,180.00,0.00,OPEN,0
671172.234,0,0,0,1.000,1.000,0.981,-90.00,180.00,0.00,OPEN,0
671172.243,0,0,0,1.000,1.000,0.978,-90.00,180.00,0.00,OPEN,0
671172.251,0,0,0,1.000,1.000,0.983,-90.00,180.00,0.00,OPEN,0
671172.255,0,0,0,1.000,1.000,0.993,-90.00,180.00,0.00,OPEN,0
671172.259,0,0,0,1.000,1.000,0.992,-90.00,180.00,0.00,OPEN,0
671172.263,0,0,0,1.000,1.000,0.992,-90.00,180.00,0.00,OPEN,0
671172.268,0,0,0,1.000,1.000,0.989,-90.00,180.00,0.00,OPEN,0
671172.276,0,0,0,1.000,1.000,0.988,-90.00,180.00,0.00,OPEN,0
671172.280,0,0,0,1.000,1.000,0.957,-90.00,180.00,0.00,OPEN,0
671172.285,0,0,0,1.000,1.000,0.920,-90.00,180.00,0.00,OPEN,0
671172.289,0,0,0,1.000,1.000,0.942,-90.00,180.00,0.00,OPEN,0
671172.293,0,0,0,1.000,1.000,0.936,-90.00,180.00,0.00,OPEN,0
671172.298,0,0,0,1.000,1.000,0.935,-90.00,180.00,0.00,OPEN,0
671172.302,0,0,0,1.000,1.000,0.911,-90.00,180.00,0.00,OPEN,0
671172.311,0,0,0,1.000,1.000,0.908,-90.00,180.00,0.00,OPEN,0
671172.318,0,0,0,1.000,1.000,0.968,-90.00,180.00,0.00,OPEN,0
671172.323,0,0,0,1.000,1.000,0.969,-90.00,180.00,0.00,OPEN,0
671172.327,0,0,0,1.000,1.000,0.981,-90.00,180.00,0.00,OPEN,0
671172.332,0,0,0,1.000,1.000,0.995,-90.00,180.00,0.00,OPEN,0
671172.338,0,0,0,1.000,1.000,0.996,-90.00,180.00,0.00,OPEN,0
671172.344,0,0,0,1.000,1.000,0.996,-90.00,180.00,0.00,OPEN,0
671172.350,0,0,0,1.000,1.000,0.994,-90.00,180.00,0.00,OPEN,0
671172.357,0,0,0,1.000,1.000,0.990,-90.00,180.00,0.00,OPEN,0
671172.362,0,0,0,1.000,1.000,0.986,-90.00,180.00,0.00,OPEN,0
671172.366,0,0,0,1.000,1.000,0.987,-90.00,180.00,0.00,OPEN,0
671172.374,0,0,0,1.000,1.000,0.982,-90.00,180.00,0.00,OPEN,0
671172.379,0,0,0,1.000,1.000,0.978,-90.00,180.00,0.00,OPEN,0
671172.388,0,0,0,1.000,1.000,0.983,-90.00,180.00,0.00,OPEN,0
671172.396,0,0,0,1.000,1.000,0.988,-90.00,180.00,0.00,OPEN,0
671172.405,0,0,0,1.000,1.000,0.994,-90.00,180.00,0.00,OPEN,0
671172.414,0,0,0,1.000,1.000,0.994,-90.00,180.00,0.00,OPEN,0
671172.422,0,0,0,1.000,1.000,0.990,-90.00,180.00,0.00,OPEN,0
671172.426,0,0,0,1.000,1.000,0.991,-90.00,180.00,0.00,OPEN,0
671172.431,0,0,0,1.000,1.000,0.989,-90.00,180.00,0.00,OPEN,0
671172.440,0,0,0,1.000,1.000,0.986,-90.00,180.00,0.00,OPEN,0
671172.448,0,0,0,1.000,1.000,0.985,-90.00,180.00,0.00,OPEN,0
671172.457,0,0,0,1.000,1.000,0.981,-90.00,180.00,0.00,OPEN,0
671172.465,0,0,0,1.000,1.000,0.979,-90.00,180.00,0.00,OPEN,0
671172.474,0,0,0,1.000,1.000,0.988,-90.00,180.00,0.00,OPEN,0
671172.482,0,0,0,1.000,1.000,0.987,-90.00,180.00,0.00,OPEN,0
671172.491,0,0,0,1.000,1.000,0.987,-90.00,180.00,0.00,OPEN,0
671172.499,0,0,0,1.000,1.000,0.987,-90.00,180.00,0.00,OPEN,0
671172.508,0,0,0,1.000,1.000,0.990,-90.00,180.00,0.00,OPEN,0
671172.516,0,0,0,1.000,1.000,0.994,-90.00,180.00,0.00,OPEN,0
671172.524,0,0,0,1.000,1.000,0.989,-90.00,180.00,0.00,OPEN,0
671172.530,0,0,0,1.000,1.000,0.987,-90.00,180.00,0.00,OPEN,0
671172.535,0,0,0,1.000,1.000,0.987,-90.00,180.00,0.00,OPEN,0
671172.539,0,0,0,1.000,1.000,0.990,-90.00,180.00,0.00,OPEN,0
671172.544,0,0,0,1.000,1.000,0.981,-90.00,180.00,0.00,OPEN,0
671172.552,0,0,0,1.000,1.000,0.979,-90.00,180.00,0.00,OPEN,0
671172.560,0,0,0,1.000,1.000,0.985,-90.00,180.00,0.00,OPEN,0
671172.568,0,0,0,1.000,1.000,1.000,-90.00,180.00,0.00,OPEN,0
671172.573,0,0,0,1.000,1.000,1.000,-90.00,180.00,0.00,OPEN,0
671172.577,1,0,0,1.000,1.000,1.000,-90.00,180.00,4.50,OPEN,1
671172.583,1,0,0,1.000,1.000,1.000,-90.00,180.00,4.50,OPEN,0
671172.588,1,0,0,1.000,1.000,1.000,-90.00,180.00,4.50,OPEN,0
671172.592,1,0,0,1.000,1.000,1.000,-90.00,180.00,4.50,OPEN,0
671172.597,1,0,0,1.000,1.000,1.000,-90.00,180.00,4.50,OPEN,0
671172.603,1,0,0,1.000,1.000,1.000,-90.00,180.00,4.50,OPEN,0
671172.609,1,0,0,1.000,1.000,1.000,-90.00,180.00,4.50,OPEN,0
671172.613,1,0,0,1.000,1.000,1.000,-90.00,180.00,4.50,OPEN,0
671172.618,1,0,0,1.000,1.000,1.000,-90.00,180.00,4.50,OPEN,0
671172.623,1,0,0,1.000,1.000,1.000,-90.00,180.00,4.50,OPEN,0
671172.627,1,0,0,1.000,1.000,1.000,-90.00,180.00,4.50,OPEN,0
671172.631,1,0,0,1.000,1.000,1.000,-90.00,180.00,4.50,OPEN,0
671172.635,1,0,0,1.000,1.000,1.000,-90.00,180.00,4.50,OPEN,0
671172.639,1,0,0,1.000,1.000,1.000,-90.00,180.00,4.50,OPEN,0
671172.643,1,0,0,1.000,1.000,1.000,-90.00,180.00,4.50,OPEN,0
671172.649,1,0,0,1.000,1.000,1.000,-90.00,180.00,4.50,OPEN,0
671172.657,1,0,0,1.000,1.000,0.924,-90.00,180.00,4.50,OPEN,0
671172.664,1,0,0,1.000,1.000,0.700,-90.00,180.00,4.50,OPEN,0
671172.670,1,0,0,1.000,1.000,0.790,-90.00,180.00,4.50,OPEN,0
671172.676,1,0,0,1.000,1.000,1.000,-90.00,180.00,4.50,OPEN,0
671172.681,1,0,0,1.000,1.000,1.000,-90.00,180.00,9.00,OPEN,1
671172.689,1,0,0,1.000,1.000,1.000,-90.00,180.00,9.00,OPEN,0
671172.697,1,0,0,0.773,1.000,1.000,-90.00,180.00,9.00,OPEN,0
671172.706,1,0,0,1.000,1.000,1.000,-90.00,180.00,9.00,OPEN,0
671172.713,1,0,0,1.000,1.000,1.000,-90.00,180.00,9.00,OPEN,0
671172.722,1,0,0,1.000,1.000,1.000,-90.00,180.00,9.00,OPEN,0
671172.729,1,0,0,1.000,1.000,1.000,-90.00,180.00,9.00,OPEN,0
671172.735,1,0,0,1.000,1.000,1.000,-90.00,180.00,9.00,OPEN,0
671172.743,1,0,0,1.000,1.000,1.000,-90.00,180.00,9.00,OPEN,0
671172.748,1,0,0,1.000,0.522,0.982,-90.00,180.00,9.00,OPEN,0
671172.752,0,0,0,1.000,0.998,0.732,-90.00,180.00,9.00,OPEN,0
671172.759,0,0,0,1.000,1.000,0.598,-90.00,180.00,9.00,OPEN,0
671172.764,0,0,0,1.000,1.000,0.546,-90.00,180.00,9.00,OPEN,0
671172.772,0,0,0,1.000,1.000,0.600,-90.00,180.00,9.00,OPEN,0
671172.776,0,0,0,1.000,1.000,0.996,-90.00,180.00,9.00,OPEN,0
671172.784,0,0,0,1.000,1.000,0.976,-90.00,180.00,9.00,OPEN,0
671172.792,0,0,0,1.000,1.000,0.959,-90.00,180.00,9.00,OPEN,0
671172.799,0,0,0,1.000,1.000,0.984,-90.00,180.00,9.00,OPEN,0
671172.803,0,0,0,1.000,0.992,0.988,-90.00,180.00,9.00,OPEN,0
671172.808,0,0,0,1.000,0.973,0.978,-90.00,180.00,9.00,OPEN,0
671172.811,0,0,0,1.000,0.743,0.999,-90.00,180.00,9.00,OPEN,0
671172.817,0,0,0,1.000,1.000,1.000,-90.00,180.00,9.00,OPEN,0
671172.826,0,0,0,1.000,1.000,0.995,-90.00,180.00,9.00,OPEN,0
671172.835,0,0,0,1.000,0.810,0.803,-90.00,180.00,9.00,OPEN,0
671172.849,0,0,0,1.000,0.977,0.574,-90.00,180.00,9.00,OPEN,0
671172.859,0,0,0,1.000,0.949,0.637,-90.00,180.00,9.00,OPEN,0
671172.864,0,0,0,1.000,0.778,0.794,-90.00,180.00,9.00,OPEN,0
671172.871,0,0,0,1.000,0.995,0.992,-90.00,180.00,9.00,OPEN,0
671172.876,0,0,0,1.000,1.000,1.000,-90.00,180.00,9.00,OPEN,0
671172.884,0,0,0,1.000,1.000,1.000,-90.00,180.00,9.00,OPEN,0
671172.892,0,0,0,1.000,1.000,1.000,-90.00,180.00,9.00,OPEN,0
671172.901,0,0,0,1.000,1.000,1.000,-90.00,180.00,9.00,OPEN,0
671172.909,0,0,0,1.000,1.000,1.000,-90.00,180.00,9.00,OPEN,0
671172.915,0,0,0,1.000,1.000,1.000,-90.00,180.00,9.00,OPEN,0
671172.920,0,0,0,1.000,1.000,1.000,-90.00,180.00,9.00,OPEN,0
671172.924,0,0,0,1.000,1.000,0.956,-90.00,180.00,9.00,OPEN,0
671172.928,0,0,0,1.000,1.000,0.562,-90.00,180.00,9.00,OPEN,0
671172.935,0,0,0,1.000,1.000,1.000,-90.00,180.00,9.00,OPEN,0
671172.943,0,0,0,1.000,1.000,1.000,-90.00,180.00,9.00,OPEN,0
671172.951,0,0,0,1.000,1.000,1.000,-90.00,180.00,9.00,OPEN,0
671172.955,0,0,0,1.000,1.000,1.000,-90.00,180.00,9.00,OPEN,0
671172.959,0,0,0,1.000,1.000,1.000,-90.00,180.00,9.00,OPEN,0
671172.964,0,0,0,1.000,1.000,1.000,-90.00,180.00,9.00,OPEN,0
671172.968,0,0,0,1.000,1.000,1.000,-90.00,180.00,9.00,OPEN,0
671172.972,0,0,0,1.000,1.000,1.000,-90.00,180.00,9.00,OPEN,0
671172.977,0,0,0,1.000,1.000,1.000,-90.00,180.00,9.00,OPEN,0
671172.983,0,0,0,1.000,1.000,1.000,-90.00,180.00,9.00,OPEN,0
671172.992,0,0,0,1.000,1.000,1.000,-90.00,180.00,9.00,OPEN,0
671173.000,0,0,0,1.000,1.000,1.000,-90.00,180.00,9.00,OPEN,0
671173.009,0,0,0,1.000,1.000,1.000,-90.00,180.00,9.00,OPEN,0
671173.016,0,0,0,1.000,1.000,1.000,-90.00,180.00,9.00,OPEN,0
671173.024,0,0,0,1.000,1.000,1.000,-90.00,180.00,9.00,OPEN,0
671173.030,0,0,0,1.000,1.000,1.000,-90.00,180.00,9.00,OPEN,0
671173.037,0,0,0,1.000,1.000,1.000,-90.00,180.00,9.00,OPEN,0
671173.045,0,0,0,1.000,0.999,1.000,-90.00,180.00,9.00,OPEN,0
671173.053,0,0,0,1.000,0.847,0.986,-90.00,180.00,9.00,OPEN,0
671173.061,0,0,0,1.000,1.000,0.759,-90.00,180.00,9.00,OPEN,0
671173.069,0,0,0,1.000,1.000,0.965,-90.00,180.00,9.00,OPEN,0
671173.073,0,0,0,1.000,1.000,0.994,-90.00,180.00,9.00,OPEN,0
671173.077,0,0,0,1.000,1.000,0.994,-90.00,180.00,9.00,OPEN,0
671173.081,0,0,0,1.000,1.000,0.993,-90.00,180.00,9.00,OPEN,0
671173.085,0,0,0,1.000,1.000,0.991,-90.00,180.00,9.00,OPEN,0
671173.089,0,0,0,1.000,1.000,0.987,-90.00,180.00,9.00,OPEN,0
671173.093,0,0,0,1.000,1.000,0.991,-90.00,180.00,9.00,OPEN,0
671173.097,0,0,0,1.000,1.000,0.995,-90.00,180.00,9.00,OPEN,0
671173.102,0,0,0,1.000,1.000,0.993,-90.00,180.00,9.00,OPEN,0
671173.107,0,0,0,1.000,1.000,0.985,-90.00,180.00,9.00,OPEN,0
671173.113,0,0,0,1.000,1.000,0.981,-90.00,180.00,9.00,OPEN,0
671173.117,0,0,0,1.000,1.000,0.991,-90.00,180.00,9.00,OPEN,0
671173.122,0,0,0,1.000,1.000,0.989,-90.00,180.00,9.00,OPEN,0
671173.126,0,0,0,1.000,1.000,0.980,-90.00,180.00,9.00,OPEN,0
671173.130,0,0,0,1.000,1.000,0.959,-90.00,180.00,9.00,OPEN,0
671173.134,0,0,0,1.000,1.000,0.587,-90.00,180.00,9.00,OPEN,0
671173.142,0,0,0,1.000,1.000,0.505,-90.00,180.00,9.00,OPEN,0
671173.146,0,0,0,1.000,1.000,0.514,-90.00,180.00,9.00,OPEN,0
671173.150,0,0,0,1.000,1.000,0.504,-90.00,180.00,9.00,OPEN,0
671173.154,0,0,0,1.000,1.000,0.527,-90.00,180.00,9.00,OPEN,0
671173.158,0,0,0,1.000,1.000,0.761,-90.00,180.00,9.00,OPEN,0
671173.167,0,0,0,1.000,1.000,0.892,-90.00,180.00,9.00,OPEN,0
671173.176,0,0,0,1.000,1.000,0.929,-90.00,180.00,9.00,OPEN,0
671173.185,0,0,0,1.000,1.000,0.940,-90.00,180.00,9.00,OPEN,0
671173.193,0,0,0,1.000,1.000,0.913,-90.00,180.00,9.00,OPEN,0
671173.202,0,0,0,1.000,1.000,0.912,-90.00,180.00,9.00,OPEN,0
671173.210,0,0,0,1.000,1.000,0.848,-90.00,180.00,9.00,OPEN,0
671173.215,0,0,0,1.000,1.000,0.874,-90.00,180.00,9.00,OPEN,0
671173.223,0,0,0,1.000,1.000,0.876,-90.00,180.00,9.00,OPEN,0
671173.230,0,0,0,1.000,1.000,0.909,-90.00,180.00,9.00,OPEN,0
671173.237,0,0,0,1.000,1.000,0.925,-90.00,180.00,9.00,OPEN,0
671173.244,0,0,0,1.000,1.000,0.970,-90.00,180.00,9.00,OPEN,0
671173.252,0,0,0,1.000,1.000,0.980,-90.00,180.00,9.00,OPEN,0
671173.255,0,0,0,1.000,1.000,0.982,-90.00,180.00,9.00,OPEN,0
671173.260,0,0,0,1.000,1.000,0.990,-90.00,180.00,9.00,OPEN,0
671173.263,0,0,0,1.000,1.000,0.993,-90.00,180.00,9.00,OPEN,0
671173.267,0,0,0,1.000,1.000,0.991,-90.00,180.00,9.00,OPEN,0
671173.271,0,0,0,1.000,1.000,0.993,-90.00,180.00,9.00,OPEN,0
671173.276,0,0,0,1.000,1.000,0.995,-90.00,180.00,9.00,OPEN,0
671173.279,0,0,0,1.000,1.000,0.995,-90.00,180.00,9.00,OPEN,0
671173.283,0,0,0,1.000,1.000,0.996,-90.00,180.00,9.00,OPEN,0
671173.287,0,0,0,1.000,1.000,0.997,-90.00,180.00,9.00,OPEN,0
671173.291,0,0,0,1.000,1.000,0.988,-90.00,180.00,9.00,OPEN,0
671173.295,0,0,0,1.000,1.000,0.949,-90.00,180.00,9.00,OPEN,0
671173.299,0,0,0,1.000,1.000,0.769,-90.00,180.00,9.00,OPEN,0
671173.307,0,0,0,1.000,1.000,0.682,-90.00,180.00,9.00,OPEN,0
671173.313,0,0,0,1.000,1.000,0.598,-90.00,180.00,9.00,OPEN,0
671173.317,0,0,0,1.000,1.000,0.619,-90.00,180.00,9.00,OPEN,0
671173.321,0,0,0,1.000,1.000,0.518,-90.00,180.00,9.00,OPEN,0
671173.325,0,0,0,1.000,1.000,0.527,-90.00,180.00,9.00,OPEN,0
671173.329,0,0,0,1.000,1.000,0.560,-90.00,180.00,9.00,OPEN,0
671173.333,0,0,0,1.000,1.000,0.534,-90.00,180.00,9.00,OPEN,0
671173.337,0,0,0,1.000,1.000,0.687,-90.00,180.00,9.00,OPEN,0
671173.341,0,0,0,1.000,1.000,0.702,-90.00,180.00,9.00,OPEN,0
671173.346,0,0,0,1.000,1.000,0.818,-90.00,180.00,9.00,OPEN,0
671173.349,0,0,0,1.000,1.000,0.739,-90.00,180.00,9.00,OPEN,0
671173.354,0,0,0,1.000,1.000,0.771,-90.00,180.00,9.00,OPEN,0
671173.358,0,0,0,1.000,1.000,0.750,-90.00,180.00,9.00,OPEN,0
671173.362,0,0,0,1.000,1.000,0.721,-90.00,180.00,9.00,OPEN,0
671173.366,0,0,0,1.000,1.000,0.617,-90.00,180.00,9.00,OPEN,0
671173.370,0,0,0,1.000,1.000,0.580,-90.00,180.00,9.00,OPEN,0
671173.373,0,0,0,1.000,1.000,0.666,-90.00,180.00,9.00,OPEN,0
671173.377,0,0,0,1.000,1.000,0.615,-90.00,180.00,9.00,OPEN,0
671173.381,0,0,0,1.000,1.000,0.527,-90.00,180.00,9.00,OPEN,0
671173.386,0,0,0,1.000,1.000,0.607,-90.00,180.00,9.00,OPEN,0
671173.391,0,0,0,1.000,1.000,0.608,-90.00,180.00,9.00,OPEN,0
671173.395,0,0,0,1.000,1.000,0.708,-90.00,180.00,9.00,OPEN,0
671173.398,0,0,0,1.000,1.000,0.855,-90.00,180.00,9.00,OPEN,0
671173.404,0,0,0,1.000,1.000,0.816,-90.00,180.00,9.00,OPEN,0
671173.408,0,0,0,1.000,1.000,0.858,-90.00,180.00,9.00,OPEN,0
671173.412,0,0,0,1.000,1.000,0.850,-90.00,180.00,9.00,OPEN,0
671173.416,0,0,0,1.000,1.000,0.653,-90.00,180.00,9.00,OPEN,0
671173.424,0,0,0,1.000,1.000,0.612,-90.00,180.00,9.00,OPEN,0
671173.428,0,0,0,1.000,1.000,0.638,-90.00,180.00,9.00,OPEN,0
671173.433,0,0,0,1.000,1.000,0.707,-90.00,180.00,9.00,OPEN,0
671173.441,0,0,0,1.000,1.000,0.766,-90.00,180.00,9.00,OPEN,0
671173.451,0,0,0,1.000,1.000,0.682,-90.00,180.00,9.00,OPEN,0
671173.459,0,0,0,1.000,1.000,0.505,-90.00,180.00,9.00,OPEN,0
671173.468,0,0,0,1.000,1.000,0.640,-90.00,180.00,9.00,OPEN,0
671173.476,0,0,0,1.000,1.000,0.733,-90.00,180.00,9.00,OPEN,0
671173.484,0,0,0,1.000,1.000,1.000,-90.00,180.00,9.00,OPEN,0
671173.493,0,0,0,1.000,1.000,1.000,-90.00,180.00,9.00,OPEN,0
671173.501,0,0,0,1.000,1.000,1.000,-90.00,180.00,9.00,OPEN,0
671173.509,0,0,0,1.000,1.000,1.000,-90.00,180.00,9.00,OPEN,0
671173.517,0,0,0,1.000,1.000,1.000,-90.00,180.00,9.00,OPEN,0
671173.522,0,0,0,1.000,1.000,1.000,-90.00,180.00,9.00,OPEN,0
671173.526,0,0,0,1.000,1.000,1.000,-90.00,180.00,9.00,OPEN,0
671173.530,0,0,0,1.000,1.000,1.000,-90.00,180.00,9.00,OPEN,0
671173.534,0,0,0,1.000,1.000,1.000,-90.00,180.00,9.00,OPEN,0
671173.539,0,0,0,1.000,1.000,1.000,-90.00,180.00,9.00,OPEN,0
671173.543,0,0,0,0.984,1.000,1.000,-90.00,180.00,9.00,OPEN,0
671173.547,0,0,0,0.985,1.000,1.000,-90.00,180.00,9.00,OPEN,0
671173.553,0,0,0,0.968,1.000,1.000,-90.00,180.00,9.00,OPEN,0
671173.561,0,0,0,0.966,1.000,1.000,-90.00,180.00,9.00,OPEN,0
671173.566,0,0,0,0.962,1.000,1.000,-90.00,180.00,9.00,OPEN,0
671173.570,0,0,0,0.957,1.000,1.000,-90.00,180.00,9.00,OPEN,0
671173.574,0,0,0,0.937,1.000,1.000,-90.00,180.00,9.00,OPEN,0
671173.577,0,0,0,0.984,1.000,1.000,-90.00,180.00,9.00,OPEN,0
671173.581,0,0,0,0.999,1.000,1.000,-90.00,180.00,9.00,OPEN,0
671173.585,0,0,0,1.000,1.000,1.000,-90.00,180.00,9.00,OPEN,0
671173.594,0,0,0,1.000,0.985,0.999,-90.00,180.00,9.00,OPEN,0
671173.598,0,0,0,1.000,1.000,1.000,-90.00,180.00,9.00,OPEN,0
671173.604,0,0,0,1.000,1.000,1.000,-90.00,180.00,9.00,OPEN,0
671173.608,0,0,0,1.000,0.997,1.000,-90.00,180.00,9.00,OPEN,0
671173.612,2,0,0,1.000,1.000,1.000,-90.00,180.00,4.50,OPEN,1
671173.616,2,0,0,1.000,1.000,1.000,-90.00,180.00,4.50,OPEN,0
671173.621,2,0,0,1.000,1.000,1.000,-90.00,180.00,4.50,OPEN,0
671173.625,2,0,0,1.000,1.000,1.000,-90.00,180.00,4.50,OPEN,0
671173.628,2,0,0,1.000,0.996,0.988,-90.00,180.00,4.50,OPEN,0
671173.632,2,0,0,1.000,0.999,0.980,-90.00,180.00,4.50,OPEN,0
671173.638,2,0,0,1.000,0.999,0.977,-90.00,180.00,4.50,OPEN,0
671173.644,2,0,0,1.000,0.998,0.962,-90.00,180.00,4.50,OPEN,0
671173.648,2,0,0,1.000,0.958,0.800,-90.00,180.00,4.50,OPEN,0
671173.654,2,0,0,1.000,1.000,0.998,-90.00,180.00,4.50,OPEN,0
671173.658,2,0,0,1.000,1.000,1.000,-90.00,180.00,4.50,OPEN,0
671173.665,2,0,0,1.000,1.000,1.000,-90.00,180.00,4.50,OPEN,0
671173.670,2,0,0,1.000,1.000,1.000,-90.00,180.00,4.50,OPEN,0
671173.674,2,0,0,1.000,1.000,1.000,-90.00,180.00,4.50,OPEN,0
671173.681,2,0,0,1.000,1.000,1.000,-90.00,180.00,4.50,OPEN,0
671173.688,2,0,0,1.000,1.000,1.000,-90.00,180.00,4.50,OPEN,0
671173.692,2,0,0,1.000,1.000,1.000,-90.00,180.00,4.50,OPEN,0
671173.696,2,0,0,1.000,1.000,1.000,-90.00,180.00,4.50,OPEN,0
671173.699,2,0,0,1.000,1.000,1.000,-90.00,180.00,4.50,OPEN,0
671173.706,2,0,0,1.000,1.000,1.000,-90.00,180.00,4.50,OPEN,0
671173.714,2,0,0,1.000,1.000,1.000,-90.00,180.00,0.00,OPEN,1
671173.723,2,0,0,1.000,1.000,1.000,-90.00,180.00,0.00,OPEN,0
671173.730,2,0,0,1.000,1.000,1.000,-90.00,180.00,0.00,OPEN,0
671173.735,2,0,0,1.000,1.000,1.000,-90.00,180.00,0.00,OPEN,0
671173.739,2,0,0,1.000,1.000,1.000,-90.00,180.00,0.00,OPEN,0
671173.743,2,0,0,1.000,1.000,1.000,-90.00,180.00,0.00,OPEN,0
671173.747,2,0,0,1.000,1.000,1.000,-90.00,180.00,0.00,OPEN,0
671173.751,2,0,0,1.000,1.000,1.000,-90.00,180.00,0.00,OPEN,0
671173.755,2,0,0,1.000,1.000,1.000,-90.00,180.00,0.00,OPEN,0
671173.759,2,0,0,1.000,1.000,1.000,-90.00,180.00,0.00,OPEN,0
671173.767,2,0,0,1.000,1.000,1.000,-90.00,180.00,0.00,OPEN,0
671173.771,2,0,0,1.000,1.000,1.000,-90.00,180.00,0.00,OPEN,0
671173.774,2,0,0,1.000,1.000,1.000,-90.00,180.00,0.00,OPEN,0
671173.779,2,0,0,1.000,1.000,1.000,-90.00,180.00,0.00,OPEN,0
671173.782,2,0,0,1.000,1.000,1.000,-90.00,180.00,0.00,OPEN,0
671173.787,2,0,0,1.000,1.000,1.000,-90.00,180.00,0.00,OPEN,0
671173.790,2,0,0,1.000,1.000,1.000,-90.00,180.00,0.00,OPEN,0
671173.795,2,0,0,1.000,1.000,1.000,-90.00,180.00,0.00,OPEN,0
671173.799,2,0,0,1.000,1.000,1.000,-90.00,180.00,0.00,OPEN,0
671173.807,2,0,0,1.000,1.000,1.000,-90.00,180.00,0.00,OPEN,0
671173.814,2,0,0,1.000,1.000,1.000,-90.00,180.00,-4.50,OPEN,1
671173.819,2,0,0,1.000,1.000,1.000,-90.00,180.00,-4.50,OPEN,0
671173.824,2,0,0,1.000,1.000,1.000,-90.00,180.00,-4.50,OPEN,0
671173.828,2,0,0,1.000,1.000,1.000,-90.00,180.00,-4.50,OPEN,0
671173.832,2,0,0,1.000,1.000,1.000,-90.00,180.00,-4.50,OPEN,0
671173.840,2,0,0,1.000,1.000,1.000,-90.00,180.00,-4.50,OPEN,0
671173.845,2,0,0,1.000,1.000,1.000,-90.00,180.00,-4.50,OPEN,0
671173.849,2,0,0,1.000,1.000,1.000,-90.00,180.00,-4.50,OPEN,0
671173.853,2,0,0,1.000,1.000,1.000,-90.00,180.00,-4.50,OPEN,0
671173.857,2,0,0,1.000,1.000,1.000,-90.00,180.00,-4.50,OPEN,0
671173.861,2,0,0,1.000,1.000,1.000,-90.00,180.00,-4.50,OPEN,0
671173.865,2,0,0,1.000,1.000,1.000,-90.00,180.00,-4.50,OPEN,0
671173.871,2,0,0,1.000,1.000,1.000,-90.00,180.00,-4.50,OPEN,0
671173.875,2,0,0,1.000,1.000,1.000,-90.00,180.00,-4.50,OPEN,0
671173.879,2,0,0,1.000,1.000,1.000,-90.00,180.00,-4.50,OPEN,0
671173.883,2,0,0,1.000,1.000,1.000,-90.00,180.00,-4.50,OPEN,0
671173.887,2,0,0,1.000,1.000,1.000,-90.00,180.00,-4.50,OPEN,0
671173.891,2,0,0,1.000,1.000,1.000,-90.00,180.00,-4.50,OPEN,0
671173.895,2,0,0,1.000,1.000,1.000,-90.00,180.00,-4.50,OPEN,0
671173.899,2,0,0,1.000,1.000,1.000,-90.00,180.00,-4.50,OPEN,0
671173.904,2,0,0,1.000,1.000,1.000,-90.00,180.00,-4.50,OPEN,0
671173.913,2,0,0,1.000,1.000,1.000,-90.00,180.00,-4.50,OPEN,0
671173.918,2,0,0,1.000,1.000,1.000,-90.00,180.00,-9.00,OPEN,1
671173.922,2,0,0,1.000,1.000,1.000,-90.00,180.00,-9.00,OPEN,0
671173.925,2,0,0,1.000,1.000,1.000,-90.00,180.00,-9.00,OPEN,0
671173.930,2,0,0,1.000,1.000,1.000,-90.00,180.00,-9.00,OPEN,0
671173.934,2,0,0,1.000,1.000,1.000,-90.00,180.00,-9.00,OPEN,0
671173.942,2,0,0,1.000,1.000,1.000,-90.00,180.00,-9.00,OPEN,0
671173.946,2,0,0,1.000,1.000,1.000,-90.00,180.00,-9.00,OPEN,0
671173.951,2,0,0,1.000,1.000,1.000,-90.00,180.00,-9.00,OPEN,0
671173.956,2,0,0,1.000,1.000,1.000,-90.00,180.00,-9.00,OPEN,0
671173.960,2,0,0,1.000,1.000,1.000,-90.00,180.00,-9.00,OPEN,0
671173.963,2,0,0,1.000,1.000,1.000,-90.00,180.00,-9.00,OPEN,0
671173.968,2,0,0,1.000,1.000,1.000,-90.00,180.00,-9.00,OPEN,0
671173.973,2,0,0,1.000,1.000,1.000,-90.00,180.00,-9.00,OPEN,0
671173.977,2,0,0,1.000,1.000,1.000,-90.00,180.00,-9.00,OPEN,0
671173.986,2,0,0,1.000,1.000,1.000,-90.00,180.00,-9.00,OPEN,0
671173.994,2,0,0,1.000,1.000,1.000,-90.00,180.00,-9.00,OPEN,0
671174.001,2,0,0,1.000,1.000,1.000,-90.00,180.00,-9.00,OPEN,0
671174.009,2,0,0,1.000,1.000,1.000,-90.00,180.00,-9.00,OPEN,0
671174.017,2,0,0,1.000,1.000,1.000,-90.00,180.00,-9.00,OPEN,0
671174.024,2,0,0,1.000,1.000,1.000,-90.00,180.00,-13.50,OPEN,1
671174.033,2,0,0,1.000,1.000,1.000,-90.00,180.00,-13.50,OPEN,0
671174.040,2,0,0,1.000,1.000,1.000,-90.00,180.00,-13.50,OPEN,0
671174.047,2,0,0,1.000,1.000,1.000,-90.00,180.00,-13.50,OPEN,0
671174.053,2,0,0,1.000,1.000,1.000,-90.00,180.00,-13.50,OPEN,0
671174.056,2,0,0,1.000,1.000,1.000,-90.00,180.00,-13.50,OPEN,0
671174.061,2,0,0,1.000,1.000,1.000,-90.00,180.00,-13.50,OPEN,0
671174.065,2,0,0,1.000,1.000,1.000,-90.00,180.00,-13.50,OPEN,0
671174.070,2,0,0,1.000,1.000,1.000,-90.00,180.00,-13.50,OPEN,0
671174.079,2,0,0,1.000,1.000,1.000,-90.00,180.00,-13.50,OPEN,0
671174.083,2,0,0,1.000,1.000,1.000,-90.00,180.00,-13.50,OPEN,0
671174.088,2,0,0,1.000,1.000,1.000,-90.00,180.00,-13.50,OPEN,0
671174.092,2,0,0,1.000,1.000,1.000,-90.00,180.00,-13.50,OPEN,0
671174.097,2,0,0,1.000,1.000,1.000,-90.00,180.00,-13.50,OPEN,0
671174.103,2,0,0,1.000,1.000,1.000,-90.00,180.00,-13.50,OPEN,0
671174.107,2,0,0,1.000,1.000,1.000,-90.00,180.00,-13.50,OPEN,0
671174.111,2,0,0,1.000,1.000,1.000,-90.00,180.00,-13.50,OPEN,0
671174.115,2,0,0,1.000,1.000,1.000,-90.00,180.00,-13.50,OPEN,0
671174.119,2,0,0,1.000,1.000,1.000,-90.00,180.00,-13.50,OPEN,0
671174.128,2,0,0,1.000,1.000,1.000,-90.00,180.00,-18.00,OPEN,1
671174.135,2,0,0,1.000,1.000,1.000,-90.00,180.00,-18.00,OPEN,0
671174.139,2,0,0,1.000,1.000,1.000,-90.00,180.00,-18.00,OPEN,0
671174.143,2,0,0,1.000,1.000,1.000,-90.00,180.00,-18.00,OPEN,0
671174.148,2,0,0,1.000,1.000,1.000,-90.00,180.00,-18.00,OPEN,0
671174.156,2,0,0,1.000,1.000,1.000,-90.00,180.00,-18.00,OPEN,0
671174.164,2,0,0,1.000,1.000,1.000,-90.00,180.00,-18.00,OPEN,0
671174.170,2,0,0,1.000,1.000,1.000,-90.00,180.00,-18.00,OPEN,0
671174.176,2,0,0,1.000,1.000,1.000,-90.00,180.00,-18.00,OPEN,0
671174.185,2,0,0,1.000,1.000,1.000,-90.00,180.00,-18.00,OPEN,0
671174.193,2,0,0,1.000,1.000,1.000,-90.00,180.00,-18.00,OPEN,0
671174.200,2,0,0,0.999,1.000,1.000,-90.00,180.00,-18.00,OPEN,0
671174.204,2,0,0,0.998,1.000,1.000,-90.00,180.00,-18.00,OPEN,0
671174.208,2,0,0,0.994,1.000,1.000,-90.00,180.00,-18.00,OPEN,0
671174.212,2,0,0,0.963,1.000,1.000,-90.00,180.00,-18.00,OPEN,0
671174.216,2,0,0,0.904,1.000,1.000,-90.00,180.00,-18.00,OPEN,0
671174.222,2,0,0,0.723,1.000,1.000,-90.00,180.00,-18.00,OPEN,0
671174.226,2,0,0,0.684,1.000,1.000,-90.00,180.00,-18.00,OPEN,0
671174.230,2,0,0,0.927,1.000,1.000,-90.00,180.00,-22.50,OPEN,1
671174.234,2,0,0,0.966,1.000,1.000,-90.00,180.00,-22.50,OPEN,0
671174.241,2,0,0,0.999,1.000,1.000,-90.00,180.00,-22.50,OPEN,0
671174.245,2,0,0,1.000,1.000,1.000,-90.00,180.00,-22.50,OPEN,0
671174.249,2,0,0,1.000,1.000,1.000,-90.00,180.00,-22.50,OPEN,0
671174.254,2,0,0,1.000,1.000,1.000,-90.00,180.00,-22.50,OPEN,0
671174.258,2,0,0,1.000,1.000,1.000,-90.00,180.00,-22.50,OPEN,0
671174.262,0,0,0,1.000,1.000,1.000,-90.00,180.00,-22.50,OPEN,0
671174.269,0,0,0,1.000,1.000,1.000,-90.00,180.00,-22.50,OPEN,0
671174.272,0,0,0,1.000,1.000,1.000,-90.00,180.00,-22.50,OPEN,0
671174.277,0,0,0,1.000,1.000,1.000,-90.00,180.00,-22.50,OPEN,0
671174.284,0,0,0,1.000,1.000,1.000,-90.00,180.00,-22.50,OPEN,0
671174.289,0,0,0,1.000,1.000,1.000,-90.00,180.00,-22.50,OPEN,0
671174.294,0,0,0,1.000,1.000,1.000,-90.00,180.00,-22.50,OPEN,0
671174.299,0,0,0,1.000,1.000,1.000,-90.00,180.00,-22.50,OPEN,0
671174.304,0,0,0,1.000,1.000,1.000,-90.00,180.00,-22.50,OPEN,0
671174.308,0,0,0,1.000,1.000,1.000,-90.00,180.00,-22.50,OPEN,0
671174.316,0,0,0,1.000,1.000,1.000,-90.00,180.00,-22.50,OPEN,0
671174.324,0,0,0,1.000,1.000,1.000,-90.00,180.00,-22.50,OPEN,0
671174.332,0,0,0,1.000,1.000,1.000,-90.00,180.00,-22.50,OPEN,0
671174.337,0,0,0,1.000,1.000,1.000,-90.00,180.00,-22.50,OPEN,0
671174.341,0,0,0,1.000,1.000,1.000,-90.00,180.00,-22.50,OPEN,0
671174.344,0,0,0,1.000,1.000,1.000,-90.00,180.00,-22.50,OPEN,0
671174.348,0,0,0,1.000,1.000,1.000,-90.00,180.00,-22.50,OPEN,0
671174.354,0,0,0,1.000,1.000,1.000,-90.00,180.00,-22.50,OPEN,0
671174.361,0,0,0,1.000,1.000,1.000,-90.00,180.00,-22.50,OPEN,0
671174.365,0,0,0,1.000,1.000,1.000,-90.00,180.00,-22.50,OPEN,0
671174.370,0,0,0,1.000,1.000,1.000,-90.00,180.00,-22.50,OPEN,0
671174.374,0,0,0,1.000,1.000,1.000,-90.00,180.00,-22.50,OPEN,0
671174.378,0,0,0,1.000,1.000,1.000,-90.00,180.00,-22.50,OPEN,0
671174.382,0,0,0,1.000,1.000,1.000,-90.00,180.00,-22.50,OPEN,0
671174.386,0,0,0,1.000,1.000,1.000,-90.00,180.00,-22.50,OPEN,0
671174.390,0,0,0,1.000,1.000,1.000,-90.00,180.00,-22.50,OPEN,0
671174.399,0,0,0,1.000,1.000,1.000,-90.00,180.00,-22.50,OPEN,0
671174.404,0,0,0,1.000,1.000,1.000,-90.00,180.00,-22.50,OPEN,0
671174.407,0,0,0,1.000,1.000,1.000,-90.00,180.00,-22.50,OPEN,0
671174.412,0,0,0,1.000,1.000,1.000,-90.00,180.00,-22.50,OPEN,0
671174.417,0,0,0,1.000,1.000,1.000,-90.00,180.00,-22.50,OPEN,0
671174.427,0,0,0,1.000,1.000,1.000,-90.00,180.00,-22.50,OPEN,0
671174.436,0,0,0,1.000,1.000,1.000,-90.00,180.00,-22.50,OPEN,0
671174.444,0,0,0,1.000,1.000,1.000,-90.00,180.00,-22.50,OPEN,0
671174.452,0,0,0,1.000,1.000,1.000,-90.00,180.00,-22.50,OPEN,0
671174.456,0,0,0,1.000,1.000,1.000,-90.00,180.00,-22.50,OPEN,0
671174.459,0,0,0,1.000,1.000,1.000,-90.00,180.00,-22.50,OPEN,0
671174.463,0,0,0,1.000,1.000,1.000,-90.00,180.00,-22.50,OPEN,0
671174.472,0,0,0,1.000,1.000,1.000,-90.00,180.00,-22.50,OPEN,0
671174.480,0,0,0,1.000,1.000,1.000,-90.00,180.00,-22.50,OPEN,0
671174.488,0,0,0,1.000,1.000,1.000,-90.00,180.00,-22.50,OPEN,0
671174.496,0,0,0,1.000,1.000,1.000,-90.00,180.00,-22.50,OPEN,0
671174.504,0,0,0,1.000,1.000,1.000,-90.00,180.00,-22.50,OPEN,0
671174.511,0,0,0,1.000,1.000,1.000,-90.00,180.00,-22.50,OPEN,0
671174.516,0,0,0,1.000,1.000,1.000,-90.00,180.00,-22.50,OPEN,0
671174.521,0,0,0,1.000,1.000,1.000,-90.00,180.00,-22.50,OPEN,0
671174.525,0,0,0,1.000,1.000,1.000,-90.00,180.00,-22.50,OPEN,0
671174.533,0,0,0,1.000,1.000,1.000,-90.00,180.00,-22.50,OPEN,0
671174.537,0,0,0,1.000,1.000,1.000,-90.00,180.00,-22.50,OPEN,0
671174.541,0,0,0,1.000,1.000,1.000,-90.00,180.00,-22.50,OPEN,0
671174.545,0,0,0,1.000,1.000,1.000,-90.00,180.00,-22.50,OPEN,0
671174.549,0,0,0,1.000,1.000,1.000,-90.00,180.00,-22.50,OPEN,0
671174.553,0,0,0,1.000,1.000,1.000,-90.00,180.00,-22.50,OPEN,0
671174.559,0,0,0,1.000,1.000,1.000,-90.00,180.00,-22.50,OPEN,0
671174.563,0,0,0,1.000,1.000,1.000,-90.00,180.00,-22.50,OPEN,0
671174.566,0,0,0,1.000,1.000,1.000,-90.00,180.00,-22.50,OPEN,0
671174.571,0,0,0,1.000,1.000,1.000,-90.00,180.00,-22.50,OPEN,0
671174.575,0,0,0,1.000,1.000,1.000,-90.00,180.00,-22.50,OPEN,0
671174.578,0,0,0,1.000,1.000,1.000,-90.00,180.00,-22.50,OPEN,0
671174.582,0,0,0,1.000,1.000,1.000,-90.00,180.00,-22.50,OPEN,0
671174.589,0,0,0,1.000,1.000,1.000,-90.00,180.00,-22.50,OPEN,0
671174.594,0,0,0,1.000,1.000,1.000,-90.00,180.00,-22.50,OPEN,0
671174.601,0,0,0,1.000,1.000,1.000,-90.00,180.00,-22.50,OPEN,0
671174.605,0,0,0,1.000,1.000,1.000,-90.00,180.00,-22.50,OPEN,0
671174.609,0,0,0,1.000,1.000,1.000,-90.00,180.00,-22.50,OPEN,0
671174.613,0,0,0,1.000,1.000,1.000,-90.00,180.00,-22.50,OPEN,0
671174.617,0,0,0,1.000,1.000,1.000,-90.00,180.00,-22.50,OPEN,0
671174.622,0,0,0,1.000,1.000,1.000,-90.00,180.00,-22.50,OPEN,0
671174.626,0,0,0,1.000,1.000,1.000,-90.00,180.00,-22.50,OPEN,0
671174.630,0,0,0,1.000,1.000,1.000,-90.00,180.00,-22.50,OPEN,0
671174.635,0,0,0,1.000,1.000,1.000,-90.00,180.00,-22.50,OPEN,0
671174.639,0,0,0,1.000,1.000,1.000,-90.00,180.00,-22.50,OPEN,0
671174.645,0,0,0,1.000,1.000,1.000,-90.00,180.00,-22.50,OPEN,0
671174.655,0,0,0,1.000,1.000,1.000,-90.00,180.00,-22.50,OPEN,0
671174.663,0,0,0,1.000,1.000,1.000,-90.00,180.00,-22.50,OPEN,0
671174.674,0,0,0,1.000,1.000,1.000,-90.00,180.00,-22.50,OPEN,0
671174.681,0,0,0,1.000,1.000,1.000,-90.00,180.00,-22.50,OPEN,0
671174.691,0,0,0,1.000,1.000,1.000,-90.00,180.00,-22.50,OPEN,0
671174.699,0,0,0,1.000,1.000,1.000,-90.00,180.00,-22.50,OPEN,0
671174.704,0,0,0,1.000,1.000,1.000,-90.00,180.00,-22.50,OPEN,0
671174.709,0,0,0,1.000,1.000,1.000,-90.00,180.00,-22.50,OPEN,0
671174.717,0,0,0,1.000,1.000,1.000,-90.00,180.00,-22.50,OPEN,0
671174.725,0,0,0,1.000,1.000,1.000,-90.00,180.00,-22.50,OPEN,0
671174.729,0,0,0,1.000,1.000,1.000,-90.00,180.00,-22.50,OPEN,0
671174.734,0,0,0,1.000,1.000,1.000,-90.00,180.00,-22.50,OPEN,0
671174.738,0,0,0,1.000,1.000,1.000,-90.00,180.00,-22.50,OPEN,0
671174.746,0,0,0,1.000,1.000,1.000,-90.00,180.00,-22.50,OPEN,0
671174.752,0,0,0,1.000,1.000,1.000,-90.00,180.00,-22.50,OPEN,0
671174.759,0,0,0,1.000,1.000,1.000,-90.00,180.00,-22.50,OPEN,0
671174.764,0,0,0,1.000,1.000,1.000,-90.00,180.00,-22.50,OPEN,0
671174.769,0,0,0,1.000,1.000,1.000,-90.00,180.00,-22.50,OPEN,0
671174.776,0,0,0,1.000,1.000,1.000,-90.00,180.00,-22.50,OPEN,0
671174.784,0,0,0,1.000,1.000,1.000,-90.00,180.00,-22.50,OPEN,0
671174.792,0,0,0,1.000,1.000,1.000,-90.00,180.00,-22.50,OPEN,0
671174.800,0,0,0,1.000,1.000,1.000,-90.00,180.00,-22.50,OPEN,0
671174.806,0,0,0,1.000,1.000,1.000,-90.00,180.00,-22.50,OPEN,0
671174.814,0,0,0,1.000,1.000,1.000,-90.00,180.00,-22.50,OPEN,0
671174.819,0,0,0,1.000,1.000,1.000,-90.00,180.00,-22.50,OPEN,0
671174.823,0,0,0,1.000,1.000,1.000,-90.00,180.00,-22.50,OPEN,0
671174.830,0,0,0,1.000,1.000,1.000,-90.00,180.00,-22.50,OPEN,0
671174.836,0,0,0,1.000,1.000,1.000,-90.00,180.00,-22.50,OPEN,0
671174.841,0,0,0,1.000,1.000,1.000,-90.00,180.00,-22.50,OPEN,0
671174.845,0,0,0,0.999,1.000,1.000,-90.00,180.00,-22.50,OPEN,0
671174.850,0,0,0,0.997,1.000,1.000,-90.00,180.00,-22.50,OPEN,0
671174.858,0,0,0,0.997,1.000,1.000,-90.00,180.00,-22.50,OPEN,0
671174.862,0,0,0,0.991,1.000,1.000,-90.00,180.00,-22.50,OPEN,0
671174.866,0,0,0,0.989,1.000,1.000,-90.00,180.00,-22.50,OPEN,0
671174.870,0,0,0,0.999,1.000,1.000,-90.00,180.00,-22.50,OPEN,0
671174.874,0,0,0,1.000,1.000,1.000,-90.00,180.00,-22.50,OPEN,0
671174.878,0,0,0,1.000,1.000,1.000,-90.00,180.00,-22.50,OPEN,0
671174.882,0,0,0,1.000,1.000,1.000,-90.00,180.00,-22.50,OPEN,0
671174.887,0,0,0,1.000,1.000,1.000,-90.00,180.00,-22.50,OPEN,0
671174.891,0,0,0,1.000,1.000,1.000,-90.00,180.00,-22.50,OPEN,0
671174.895,0,0,0,1.000,1.000,1.000,-90.00,180.00,-22.50,OPEN,0
671174.899,0,0,0,1.000,1.000,1.000,-90.00,180.00,-22.50,OPEN,0
671174.904,0,0,0,1.000,1.000,1.000,-90.00,180.00,-22.50,OPEN,0
671174.908,0,0,0,1.000,1.000,1.000,-90.00,180.00,-22.50,OPEN,0
671174.911,0,0,0,1.000,1.000,1.000,-90.00,180.00,-22.50,OPEN,0
671174.916,0,0,0,1.000,1.000,1.000,-90.00,180.00,-22.50,OPEN,0
671174.921,0,0,0,1.000,1.000,1.000,-90.00,180.00,-22.50,OPEN,0
671174.924,0,0,0,1.000,1.000,1.000,-90.00,180.00,-22.50,OPEN,0
671174.929,0,0,0,1.000,1.000,1.000,-90.00,180.00,-22.50,OPEN,0
671174.933,0,0,0,1.000,1.000,1.000,-90.00,180.00,-22.50,OPEN,0
671174.937,0,0,0,1.000,1.000,1.000,-90.00,180.00,-22.50,OPEN,0
671174.941,0,0,0,1.000,1.000,1.000,-90.00,180.00,-22.50,OPEN,0
671174.945,0,0,0,1.000,1.000,1.000,-90.00,180.00,-22.50,OPEN,0
671174.949,0,0,0,1.000,1.000,1.000,-90.00,180.00,-22.50,OPEN,0
671174.953,0,0,0,1.000,1.000,1.000,-90.00,180.00,-22.50,OPEN,0
671174.961,0,0,0,1.000,1.000,1.000,-90.00,180.00,-22.50,OPEN,0
671174.968,0,0,0,1.000,1.000,1.000,-90.00,180.00,-22.50,OPEN,0
671174.972,0,0,0,1.000,1.000,1.000,-90.00,180.00,-22.50,OPEN,0
671174.976,0,0,0,1.000,1.000,1.000,-90.00,180.00,-22.50,OPEN,0
671174.981,0,0,0,1.000,1.000,1.000,-90.00,180.00,-22.50,OPEN,0
671174.986,0,0,0,1.000,1.000,1.000,-90.00,180.00,-22.50,OPEN,0
671174.989,0,0,0,0.863,1.000,1.000,-90.00,180.00,-22.50,OPEN,0
671174.993,0,0,0,0.956,1.000,1.000,-90.00,180.00,-22.50,OPEN,0
671174.998,0,0,0,0.993,1.000,1.000,-90.00,180.00,-22.50,OPEN,0
671175.002,0,0,0,0.993,1.000,1.000,-90.00,180.00,-22.50,OPEN,0
671175.006,0,0,0,0.970,1.000,1.000,-90.00,180.00,-22.50,OPEN,0
671175.010,0,0,0,0.616,1.000,1.000,-90.00,180.00,-22.50,OPEN,0
671175.015,0,0,0,0.909,1.000,1.000,-90.00,180.00,-22.50,OPEN,0
671175.019,0,0,0,0.990,1.000,1.000,-90.00,180.00,-22.50,OPEN,0
671175.023,0,0,0,0.994,1.000,1.000,-90.00,180.00,-22.50,OPEN,0
671175.027,0,0,0,0.995,1.000,1.000,-90.00,180.00,-22.50,OPEN,0
671175.031,0,0,0,0.996,1.000,1.000,-90.00,180.00,-22.50,OPEN,0
671175.035,0,0,0,0.995,1.000,1.000,-90.00,180.00,-22.50,OPEN,0
671175.039,0,0,0,0.993,1.000,1.000,-90.00,180.00,-22.50,OPEN,0
671175.044,3,0,0,0.990,1.000,1.000,-90.00,180.00,-22.50,CLOSED,0
671175.048,3,0,0,0.985,1.000,1.000,-90.00,180.00,-22.50,CLOSED,0
671175.053,3,0,0,0.983,1.000,1.000,-90.00,180.00,-22.50,CLOSED,0
671175.057,3,0,0,0.985,1.000,1.000,-90.00,180.00,-22.50,CLOSED,0
671175.061,3,0,0,0.989,1.000,1.000,-90.00,180.00,-22.50,CLOSED,0
671175.064,3,0,0,0.995,1.000,1.000,-90.00,180.00,-22.50,CLOSED,0
671175.069,3,0,0,0.997,1.000,1.000,-90.00,180.00,-22.50,CLOSED,0
671175.072,3,0,0,0.999,1.000,1.000,-90.00,180.00,-22.50,CLOSED,0
671175.076,3,0,0,0.999,1.000,1.000,-90.00,180.00,-22.50,CLOSED,0
671175.080,3,0,0,1.000,1.000,1.000,-90.00,180.00,-22.50,CLOSED,0
671175.083,3,0,0,1.000,1.000,1.000,-90.00,180.00,-22.50,CLOSED,0
671175.088,3,0,0,1.000,1.000,1.000,-90.00,180.00,-22.50,CLOSED,0
671175.094,3,0,0,1.000,1.000,1.000,-90.00,180.00,-22.50,CLOSED,0
671175.100,3,0,0,1.000,1.000,1.000,-90.00,180.00,-22.50,CLOSED,0
671175.106,3,0,0,1.000,1.000,1.000,-90.00,180.00,-22.50,CLOSED,0
671175.111,3,0,0,1.000,1.000,1.000,-90.00,180.00,-22.50,CLOSED,0
671175.115,3,0,0,1.000,1.000,1.000,-90.00,180.00,-22.50,CLOSED,0
671175.120,3,0,0,1.000,1.000,1.000,-90.00,180.00,-22.50,CLOSED,0
671175.124,3,0,0,1.000,1.000,1.000,-90.00,180.00,-22.50,CLOSED,0
671175.128,3,0,0,1.000,1.000,1.000,-90.00,180.00,-22.50,CLOSED,0
671175.133,3,0,0,1.000,1.000,1.000,-90.00,180.00,-22.50,CLOSED,0
671175.138,3,0,0,1.000,1.000,1.000,-90.00,180.00,-22.50,CLOSED,0
671175.147,3,0,0,1.000,1.000,1.000,-90.00,180.00,-22.50,CLOSED,0
671175.157,3,0,0,1.000,1.000,1.000,-90.00,180.00,-22.50,CLOSED,0
671175.165,3,0,0,1.000,1.000,1.000,-90.00,180.00,-22.50,CLOSED,0
671175.172,3,0,0,0.999,1.000,1.000,-90.00,180.00,-22.50,CLOSED,0
671175.179,3,0,0,0.997,1.000,1.000,-90.00,180.00,-22.50,CLOSED,0
671175.186,3,0,0,0.992,1.000,1.000,-90.00,180.00,-22.50,CLOSED,0
671175.194,3,0,0,0.987,1.000,1.000,-90.00,180.00,-22.50,CLOSED,0
671175.202,3,0,0,0.985,1.000,1.000,-90.00,180.00,-22.50,CLOSED,0
671175.210,3,0,0,0.989,1.000,1.000,-90.00,180.00,-22.50,CLOSED,0
671175.218,3,0,0,0.993,1.000,1.000,-90.00,180.00,-22.50,CLOSED,0
671175.226,3,0,0,0.996,1.000,1.000,-90.00,180.00,-22.50,CLOSED,0
671175.231,3,0,0,0.997,1.000,1.000,-90.00,180.00,-22.50,CLOSED,0
671175.236,3,0,0,0.998,1.000,1.000,-90.00,180.00,-22.50,CLOSED,0
671175.240,3,0,0,0.998,1.000,1.000,-90.00,180.00,-22.50,CLOSED,0
671175.244,3,0,0,0.999,1.000,1.000,-90.00,180.00,-22.50,CLOSED,0
671175.248,3,0,0,0.999,1.000,1.000,-90.00,180.00,-22.50,CLOSED,0
671175.252,3,0,0,0.999,1.000,1.000,-90.00,180.00,-22.50,CLOSED,0
671175.255,3,0,0,1.000,1.000,1.000,-90.00,180.00,-22.50,CLOSED,0
671175.260,3,0,0,1.000,1.000,1.000,-90.00,180.00,-22.50,CLOSED,0
671175.263,3,0,0,1.000,1.000,1.000,-90.00,180.00,-22.50,CLOSED,0
671175.268,3,0,0,1.000,1.000,1.000,-90.00,180.00,-22.50,CLOSED,0
671175.272,3,0,0,1.000,1.000,1.000,-90.00,180.00,-22.50,CLOSED,0
671175.276,3,0,0,1.000,1.000,1.000,-90.00,180.00,-22.50,CLOSED,0
671175.279,3,0,0,1.000,1.000,1.000,-90.00,180.00,-22.50,CLOSED,0
671175.284,3,0,0,1.000,1.000,1.000,-90.00,180.00,-22.50,CLOSED,0
671175.288,3,0,0,1.000,1.000,1.000,-90.00,180.00,-22.50,CLOSED,0
671175.292,3,0,0,1.000,1.000,1.000,-90.00,180.00,-22.50,CLOSED,0
671175.296,3,0,0,1.000,1.000,1.000,-90.00,180.00,-22.50,CLOSED,0
671175.299,3,0,0,1.000,1.000,1.000,-90.00,180.00,-22.50,CLOSED,0
671175.304,3,0,0,1.000,1.000,1.000,-90.00,180.00,-22.50,CLOSED,0
671175.309,3,0,0,1.000,1.000,1.000,-90.00,180.00,-22.50,CLOSED,0
671175.317,3,0,0,1.000,1.000,1.000,-90.00,180.00,-22.50,CLOSED,0
671175.332,3,0,0,1.000,1.000,1.000,-90.00,180.00,-22.50,CLOSED,0
671175.340,3,0,0,1.000,1.000,1.000,-90.00,180.00,-22.50,CLOSED,0
671175.350,3,0,0,1.000,1.000,1.000,-90.00,180.00,-22.50,CLOSED,0
671175.358,3,0,0,1.000,1.000,1.000,-90.00,180.00,-22.50,CLOSED,0
671175.362,3,0,0,1.000,1.000,1.000,-90.00,180.00,-22.50,CLOSED,0
671175.367,3,0,0,1.000,1.000,1.000,-90.00,180.00,-22.50,CLOSED,0
671175.371,3,0,0,1.000,1.000,1.000,-90.00,180.00,-22.50,CLOSED,0
671175.379,3,0,0,1.000,1.000,1.000,-90.00,180.00,-22.50,CLOSED,0
671175.386,3,0,0,1.000,1.000,1.000,-90.00,180.00,-22.50,CLOSED,0
671175.392,3,0,0,1.000,1.000,1.000,-90.00,180.00,-22.50,CLOSED,0
671175.400,3,0,0,1.000,1.000,1.000,-90.00,180.00,-22.50,CLOSED,0
671175.407,3,0,0,1.000,1.000,1.000,-90.00,180.00,-22.50,CLOSED,0
671175.415,3,0,0,1.000,1.000,1.000,-90.00,180.00,-22.50,CLOSED,0
671175.423,3,0,0,1.000,1.000,1.000,-90.00,180.00,-22.50,CLOSED,0
671175.427,3,0,0,1.000,1.000,1.000,-90.00,180.00,-22.50,CLOSED,0
671175.431,3,0,0,1.000,1.000,1.000,-90.00,180.00,-22.50,CLOSED,0
671175.436,3,0,0,1.000,1.000,1.000,-90.00,180.00,-22.50,CLOSED,0
671175.440,3,0,0,1.000,1.000,1.000,-90.00,180.00,-22.50,CLOSED,0
671175.444,3,0,0,1.000,1.000,1.000,-90.00,180.00,-22.50,CLOSED,0
671175.448,3,0,0,1.000,1.000,1.000,-90.00,180.00,-22.50,CLOSED,0
671175.454,3,0,0,1.000,1.000,1.000,-90.00,180.00,-22.50,CLOSED,0
671175.458,3,0,0,1.000,1.000,1.000,-90.00,180.00,-22.50,CLOSED,0
671175.462,3,0,0,1.000,1.000,1.000,-90.00,180.00,-22.50,CLOSED,0
671175.468,3,0,0,1.000,1.000,1.000,-90.00,180.00,-22.50,CLOSED,0
671175.474,3,0,0,1.000,1.000,1.000,-90.00,180.00,-22.50,CLOSED,0
671175.482,3,0,0,1.000,1.000,1.000,-90.00,180.00,-22.50,CLOSED,0
671175.491,3,0,0,1.000,1.000,1.000,-90.00,180.00,-22.50,CLOSED,0
671175.499,3,0,0,1.000,1.000,1.000,-90.00,180.00,-22.50,CLOSED,0
671175.507,3,0,0,1.000,1.000,1.000,-90.00,180.00,-22.50,CLOSED,0
671175.515,3,0,0,1.000,1.000,1.000,-90.00,180.00,-22.50,CLOSED,0
671175.523,3,0,0,1.000,1.000,1.000,-90.00,180.00,-22.50,CLOSED,0
671175.532,3,0,0,1.000,1.000,1.000,-90.00,180.00,-22.50,CLOSED,0
671175.540,3,0,0,1.000,1.000,1.000,-90.00,180.00,-22.50,CLOSED,0
671175.548,3,0,0,1.000,1.000,1.000,-90.00,180.00,-22.50,CLOSED,0
671175.556,3,0,0,1.000,1.000,1.000,-90.00,180.00,-22.50,CLOSED,0
671175.562,3,0,0,1.000,1.000,1.000,-90.00,180.00,-22.50,CLOSED,0
671175.566,3,0,0,1.000,1.000,1.000,-90.00,180.00,-22.50,CLOSED,0
671175.570,3,0,0,1.000,1.000,1.000,-90.00,180.00,-22.50,CLOSED,0
671175.574,3,0,0,1.000,1.000,1.000,-90.00,180.00,-22.50,CLOSED,0
671175.578,3,0,0,0.999,1.000,1.000,-90.00,180.00,-22.50,CLOSED,0
671175.582,3,0,0,0.999,1.000,1.000,-90.00,180.00,-22.50,CLOSED,0
671175.586,3,0,0,0.999,1.000,1.000,-90.00,180.00,-22.50,CLOSED,0
671175.591,3,0,0,1.000,1.000,1.000,-90.00,180.00,-22.50,CLOSED,0
671175.595,3,0,0,1.000,1.000,1.000,-90.00,180.00,-22.50,CLOSED,0
671175.599,3,0,0,1.000,1.000,1.000,-90.00,180.00,-22.50,CLOSED,0
671175.603,3,0,0,1.000,1.000,1.000,-90.00,180.00,-22.50,CLOSED,0
671175.607,3,0,0,1.000,1.000,1.000,-90.00,180.00,-22.50,CLOSED,0
671175.611,3,0,0,1.000,1.000,1.000,-90.00,180.00,-22.50,CLOSED,0
671175.615,3,0,0,1.000,1.000,1.000,-90.00,180.00,-22.50,CLOSED,0
671175.622,3,0,0,1.000,1.000,1.000,-90.00,180.00,-22.50,CLOSED,0
671175.626,3,0,0,1.000,1.000,1.000,-90.00,180.00,-22.50,CLOSED,0
671175.631,3,0,0,1.000,1.000,1.000,-90.00,180.00,-22.50,CLOSED,0
671175.637,3,0,0,1.000,1.000,1.000,-90.00,180.00,-22.50,CLOSED,0
671175.641,3,0,0,1.000,1.000,1.000,-90.00,180.00,-22.50,CLOSED,0
671175.645,3,0,0,1.000,1.000,1.000,-90.00,180.00,-22.50,CLOSED,0
671175.649,3,0,0,1.000,1.000,1.000,-90.00,180.00,-22.50,CLOSED,0
671175.654,3,0,0,1.000,1.000,1.000,-90.00,180.00,-22.50,CLOSED,0
671175.657,3,0,0,1.000,1.000,1.000,-90.00,180.00,-22.50,CLOSED,0
671175.662,3,0,0,0.984,1.000,1.000,-90.00,180.00,-22.50,CLOSED,0
671175.671,3,0,0,0.751,1.000,1.000,-90.00,180.00,-22.50,CLOSED,0
671175.677,3,0,0,0.676,1.000,1.000,-90.00,180.00,-22.50,CLOSED,0
671175.683,3,0,0,0.897,1.000,1.000,-90.00,180.00,-22.50,CLOSED,0
671175.689,3,0,0,0.933,1.000,1.000,-90.00,180.00,-22.50,CLOSED,0
671175.693,3,0,0,0.995,1.000,1.000,-90.00,180.00,-22.50,CLOSED,0
671175.698,3,0,0,1.000,1.000,1.000,-90.00,180.00,-22.50,CLOSED,0
671175.704,3,0,0,1.000,1.000,1.000,-90.00,180.00,-22.50,CLOSED,0
671175.709,3,0,0,1.000,1.000,1.000,-90.00,180.00,-22.50,CLOSED,0
671175.718,3,0,0,1.000,1.000,1.000,-90.00,180.00,-22.50,CLOSED,0
671175.722,0,0,0,1.000,1.000,1.000,-90.00,180.00,-22.50,CLOSED,0
671175.727,0,0,0,1.000,1.000,1.000,-90.00,180.00,-22.50,CLOSED,0
671175.731,0,0,0,1.000,1.000,1.000,-90.00,180.00,-22.50,CLOSED,0
671175.736,0,0,0,1.000,1.000,1.000,-90.00,180.00,-22.50,CLOSED,0
671175.740,0,0,0,1.000,1.000,1.000,-90.00,180.00,-22.50,CLOSED,0
671175.743,0,0,0,1.000,1.000,1.000,-90.00,180.00,-22.50,CLOSED,0
671175.748,0,0,0,1.000,1.000,1.000,-90.00,180.00,-22.50,CLOSED,0
671175.752,0,0,0,1.000,1.000,1.000,-90.00,180.00,-22.50,CLOSED,0
671175.756,0,0,0,1.000,1.000,1.000,-90.00,180.00,-22.50,CLOSED,0
671175.763,0,0,0,1.000,1.000,1.000,-90.00,180.00,-22.50,CLOSED,0
671175.767,0,0,0,1.000,1.000,1.000,-90.00,180.00,-22.50,CLOSED,0
671175.775,0,0,0,1.000,1.000,1.000,-90.00,180.00,-22.50,CLOSED,0
671175.781,0,0,0,1.000,1.000,1.000,-90.00,180.00,-22.50,CLOSED,0
671175.785,0,0,0,1.000,1.000,1.000,-90.00,180.00,-22.50,CLOSED,0
671175.793,0,0,0,1.000,1.000,1.000,-90.00,180.00,-22.50,CLOSED,0
671175.800,0,0,0,1.000,1.000,1.000,-90.00,180.00,-22.50,CLOSED,0
671175.804,0,0,0,1.000,1.000,1.000,-90.00,180.00,-22.50,CLOSED,0
671175.811,0,0,0,1.000,1.000,1.000,-90.00,180.00,-22.50,CLOSED,0
671175.815,0,0,0,1.000,1.000,1.000,-90.00,180.00,-22.50,CLOSED,0
671175.819,0,0,0,1.000,1.000,1.000,-90.00,180.00,-22.50,CLOSED,0
671175.822,0,0,0,1.000,1.000,1.000,-90.00,180.00,-22.50,CLOSED,0
671175.827,0,0,0,1.000,1.000,1.000,-90.00,180.00,-22.50,CLOSED,0
671175.830,0,0,0,1.000,1.000,1.000,-90.00,180.00,-22.50,CLOSED,0
671175.836,0,0,0,1.000,1.000,1.000,-90.00,180.00,-22.50,CLOSED,0
671175.840,0,0,0,1.000,1.000,1.000,-90.00,180.00,-22.50,CLOSED,0
671175.847,0,0,0,1.000,1.000,1.000,-90.00,180.00,-22.50,CLOSED,0
671175.853,0,0,0,1.000,1.000,1.000,-90.00,180.00,-22.50,CLOSED,0
671175.857,0,0,0,1.000,1.000,1.000,-90.00,180.00,-22.50,CLOSED,0
671175.861,0,0,0,1.000,1.000,1.000,-90.00,180.00,-22.50,CLOSED,0
671175.866,0,0,0,1.000,1.000,1.000,-90.00,180.00,-22.50,CLOSED,0
671175.873,0,0,0,1.000,1.000,1.000,-90.00,180.00,-22.50,CLOSED,0
671175.885,0,0,0,1.000,1.000,1.000,-90.00,180.00,-22.50,CLOSED,0
671175.890,0,0,0,1.000,1.000,1.000,-90.00,180.00,-22.50,CLOSED,0
671175.895,0,0,0,1.000,1.000,1.000,-90.00,180.00,-22.50,CLOSED,0
671175.899,0,0,0,1.000,1.000,1.000,-90.00,180.00,-22.50,CLOSED,0
671175.904,0,0,0,1.000,1.000,1.000,-90.00,180.00,-22.50,CLOSED,0
671175.910,0,0,0,1.000,1.000,1.000,-90.00,180.00,-22.50,CLOSED,0
671175.923,0,0,0,1.000,1.000,1.000,-90.00,180.00,-22.50,CLOSED,0
671175.936,0,0,0,1.000,1.000,1.000,-90.00,180.00,-22.50,CLOSED,0
671175.947,0,0,0,1.000,1.000,1.000,-90.00,180.00,-22.50,CLOSED,0
671175.960,0,0,0,1.000,1.000,1.000,-90.00,180.00,-22.50,CLOSED,0
671175.965,0,0,0,1.000,1.000,1.000,-90.00,180.00,-22.50,CLOSED,0
671175.974,0,0,0,1.000,1.000,1.000,-90.00,180.00,-22.50,CLOSED,0
671175.982,0,0,0,1.000,1.000,1.000,-90.00,180.00,-22.50,CLOSED,0
671175.990,0,0,0,1.000,1.000,1.000,-90.00,180.00,-22.50,CLOSED,0
671175.999,0,0,0,1.000,1.000,1.000,-90.00,180.00,-22.50,CLOSED,0
671176.007,0,0,0,1.000,1.000,1.000,-90.00,180.00,-22.50,CLOSED,0
671176.012,0,0,0,1.000,1.000,1.000,-90.00,180.00,-22.50,CLOSED,0
671176.017,0,0,0,1.000,1.000,1.000,-90.00,180.00,-22.50,CLOSED,0
671176.021,0,0,0,1.000,1.000,1.000,-90.00,180.00,-22.50,CLOSED,0
671176.025,0,0,0,1.000,1.000,1.000,-90.00,180.00,-22.50,CLOSED,0
671176.030,0,0,0,1.000,1.000,1.000,-90.00,180.00,-22.50,CLOSED,0
671176.036,0,0,0,1.000,1.000,1.000,-90.00,180.00,-22.50,CLOSED,0
671176.040,0,0,0,1.000,1.000,1.000,-90.00,180.00,-22.50,CLOSED,0
671176.044,0,0,0,1.000,1.000,1.000,-90.00,180.00,-22.50,CLOSED,0
671176.052,0,0,0,1.000,1.000,1.000,-90.00,180.00,-22.50,CLOSED,0
671176.056,0,0,0,1.000,1.000,1.000,-90.00,180.00,-22.50,CLOSED,0
671176.060,0,0,0,1.000,1.000,1.000,-90.00,180.00,-22.50,CLOSED,0
671176.067,0,0,0,1.000,1.000,1.000,-90.00,180.00,-22.50,CLOSED,0
671176.076,0,0,0,1.000,1.000,1.000,-90.00,180.00,-22.50,CLOSED,0
671176.083,0,0,0,1.000,1.000,1.000,-90.00,180.00,-22.50,CLOSED,0
671176.088,0,0,0,1.000,1.000,1.000,-90.00,180.00,-22.50,CLOSED,0
671176.092,0,0,0,1.000,1.000,1.000,-90.00,180.00,-22.50,CLOSED,0
671176.097,0,0,0,1.000,1.000,1.000,-90.00,180.00,-22.50,CLOSED,0
671176.102,0,0,0,1.000,1.000,1.000,-90.00,180.00,-22.50,CLOSED,0
671176.109,0,0,0,1.000,1.000,1.000,-90.00,180.00,-22.50,CLOSED,0
671176.119,0,0,0,1.000,1.000,1.000,-90.00,180.00,-22.50,CLOSED,0
671176.129,0,0,0,1.000,1.000,1.000,-90.00,180.00,-22.50,CLOSED,0
671176.139,0,0,0,1.000,1.000,1.000,-90.00,180.00,-22.50,CLOSED,0
671176.148,0,0,0,1.000,1.000,1.000,-90.00,180.00,-22.50,CLOSED,0
671176.154,0,0,0,1.000,1.000,1.000,-90.00,180.00,-22.50,CLOSED,0
671176.161,0,0,0,1.000,1.000,1.000,-90.00,180.00,-22.50,CLOSED,0
671176.168,0,0,0,1.000,1.000,1.000,-90.00,180.00,-22.50,CLOSED,0
671176.175,0,0,0,1.000,1.000,1.000,-90.00,180.00,-22.50,CLOSED,0
671176.182,0,0,0,1.000,1.000,1.000,-90.00,180.00,-22.50,CLOSED,0
671176.187,0,0,0,1.000,1.000,1.000,-90.00,180.00,-22.50,CLOSED,0
671176.192,0,0,0,1.000,1.000,1.000,-90.00,180.00,-22.50,CLOSED,0
671176.196,0,0,0,1.000,1.000,1.000,-90.00,180.00,-22.50,CLOSED,0
671176.202,0,0,0,1.000,1.000,1.000,-90.00,180.00,-22.50,CLOSED,0
671176.210,0,0,0,1.000,1.000,1.000,-90.00,180.00,-22.50,CLOSED,0
671176.218,0,0,0,1.000,1.000,1.000,-90.00,180.00,-22.50,CLOSED,0
671176.221,0,0,0,1.000,1.000,1.000,-90.00,180.00,-22.50,CLOSED,0
671176.225,0,0,0,1.000,1.000,1.000,-90.00,180.00,-22.50,CLOSED,0
671176.229,0,0,0,1.000,1.000,1.000,-90.00,180.00,-22.50,CLOSED,0
671176.234,0,0,0,1.000,1.000,1.000,-90.00,180.00,-22.50,CLOSED,0
671176.238,0,0,0,1.000,1.000,1.000,-90.00,180.00,-22.50,CLOSED,0
671176.242,0,0,0,1.000,1.000,1.000,-90.00,180.00,-22.50,CLOSED,0
671176.246,0,0,0,1.000,1.000,1.000,-90.00,180.00,-22.50,CLOSED,0
671176.250,0,0,0,1.000,1.000,1.000,-90.00,180.00,-22.50,CLOSED,0
671176.259,0,0,0,1.000,1.000,1.000,-90.00,180.00,-22.50,CLOSED,0
671176.263,0,0,0,1.000,1.000,1.000,-90.00,180.00,-22.50,CLOSED,0
671176.267,0,0,0,1.000,1.000,1.000,-90.00,180.00,-22.50,CLOSED,0
671176.271,0,0,0,1.000,1.000,1.000,-90.00,180.00,-22.50,CLOSED,0
671176.275,0,0,0,1.000,1.000,1.000,-90.00,180.00,-22.50,CLOSED,0
671176.279,0,0,0,1.000,1.000,1.000,-90.00,180.00,-22.50,CLOSED,0
671176.284,0,0,0,1.000,1.000,1.000,-90.00,180.00,-22.50,CLOSED,0
671176.291,0,0,0,1.000,1.000,1.000,-90.00,180.00,-22.50,CLOSED,0
671176.295,0,0,0,1.000,1.000,1.000,-90.00,180.00,-22.50,CLOSED,0
671176.299,0,0,0,1.000,1.000,1.000,-90.00,180.00,-22.50,CLOSED,0
671176.303,0,0,0,1.000,1.000,1.000,-90.00,180.00,-22.50,CLOSED,0
671176.307,0,0,0,1.000,1.000,1.000,-90.00,180.00,-22.50,CLOSED,0
671176.311,0,0,0,1.000,1.000,1.000,-90.00,180.00,-22.50,CLOSED,0
671176.315,0,0,0,1.000,1.000,1.000,-90.00,180.00,-22.50,CLOSED,0
671176.324,0,0,0,1.000,1.000,1.000,-90.00,180.00,-22.50,CLOSED,0
671176.328,0,0,0,1.000,1.000,1.000,-90.00,180.00,-22.50,CLOSED,0
671176.332,0,0,0,1.000,1.000,1.000,-90.00,180.00,-22.50,CLOSED,0
671176.341,0,0,0,1.000,1.000,1.000,-90.00,180.00,-22.50,CLOSED,0
671176.349,0,0,0,1.000,1.000,1.000,-90.00,180.00,-22.50,CLOSED,0
671176.357,0,0,0,1.000,1.000,1.000,-90.00,180.00,-22.50,CLOSED,0
671176.365,0,0,0,1.000,1.000,1.000,-90.00,180.00,-22.50,CLOSED,0
671176.370,0,0,0,1.000,1.000,1.000,-90.00,180.00,-22.50,CLOSED,0
671176.374,0,0,0,1.000,1.000,1.000,-90.00,180.00,-22.50,CLOSED,0
671176.383,0,0,0,1.000,1.000,1.000,-90.00,180.00,-22.50,CLOSED,0
671176.387,0,0,0,1.000,1.000,1.000,-90.00,180.00,-22.50,CLOSED,0
671176.391,0,0,0,1.000,1.000,1.000,-90.00,180.00,-22.50,CLOSED,0
671176.395,0,0,0,1.000,1.000,1.000,-90.00,180.00,-22.50,CLOSED,0
671176.399,0,0,0,1.000,1.000,1.000,-90.00,180.00,-22.50,CLOSED,0
671176.403,0,0,0,1.000,1.000,1.000,-90.00,180.00,-22.50,CLOSED,0
671176.407,0,0,0,1.000,1.000,1.000,-90.00,180.00,-22.50,CLOSED,0
671176.411,0,0,0,1.000,1.000,1.000,-90.00,180.00,-22.50,CLOSED,0
671176.417,0,0,0,1.000,1.000,1.000,-90.00,180.00,-22.50,CLOSED,0
671176.425,0,0,0,1.000,1.000,1.000,-90.00,180.00,-22.50,CLOSED,0
671176.431,0,0,0,1.000,1.000,1.000,-90.00,180.00,-22.50,CLOSED,0
671176.436,0,0,0,1.000,1.000,1.000,-90.00,180.00,-22.50,CLOSED,0
671176.442,0,0,0,1.000,1.000,1.000,-90.00,180.00,-22.50,CLOSED,0
671176.447,0,0,0,1.000,1.000,1.000,-90.00,180.00,-22.50,CLOSED,0
671176.453,0,0,0,1.000,1.000,1.000,-90.00,180.00,-22.50,CLOSED,0
671176.463,0,0,0,1.000,1.000,1.000,-90.00,180.00,-22.50,CLOSED,0
671176.472,0,0,0,1.000,1.000,1.000,-90.00,180.00,-22.50,CLOSED,0
671176.476,0,0,0,1.000,1.000,1.000,-90.00,180.00,-22.50,CLOSED,0
671176.480,0,0,0,1.000,1.000,1.000,-90.00,180.00,-22.50,CLOSED,0
671176.484,0,0,0,1.000,1.000,1.000,-90.00,180.00,-22.50,CLOSED,0
671176.493,0,0,0,1.000,1.000,1.000,-90.00,180.00,-22.50,CLOSED,0
671176.497,0,0,0,1.000,1.000,1.000,-90.00,180.00,-22.50,CLOSED,0
671176.501,0,0,0,1.000,1.000,1.000,-90.00,180.00,-22.50,CLOSED,0
671176.505,0,0,0,1.000,1.000,1.000,-90.00,180.00,-22.50,CLOSED,0
671176.509,0,0,0,1.000,1.000,1.000,-90.00,180.00,-22.50,CLOSED,0
671176.515,0,0,0,1.000,1.000,1.000,-90.00,180.00,-22.50,CLOSED,0
671176.526,0,0,0,1.000,1.000,1.000,-90.00,180.00,-22.50,CLOSED,0
671176.534,0,0,0,1.000,1.000,1.000,-90.00,180.00,-22.50,CLOSED,0
671176.538,0,0,0,1.000,1.000,1.000,-90.00,180.00,-22.50,CLOSED,0
671176.546,0,0,0,1.000,1.000,1.000,-90.00,180.00,-22.50,CLOSED,0
671176.553,0,0,0,1.000,1.000,1.000,-90.00,180.00,-22.50,CLOSED,0
671176.558,0,0,0,1.000,1.000,1.000,-90.00,180.00,-22.50,CLOSED,0
671176.562,0,0,0,1.000,1.000,1.000,-90.00,180.00,-22.50,CLOSED,0
671176.566,0,0,0,1.000,1.000,1.000,-90.00,180.00,-22.50,CLOSED,0
671176.575,0,0,0,1.000,1.000,1.000,-90.00,180.00,-22.50,CLOSED,0
671176.579,0,0,0,1.000,1.000,1.000,-90.00,180.00,-22.50,CLOSED,0
671176.583,0,0,0,1.000,1.000,1.000,-90.00,180.00,-22.50,CLOSED,0
671176.588,0,0,0,1.000,1.000,1.000,-90.00,180.00,-22.50,CLOSED,0
671176.592,0,0,0,1.000,1.000,1.000,-90.00,180.00,-22.50,CLOSED,0
671176.596,0,0,0,1.000,1.000,1.000,-90.00,180.00,-22.50,CLOSED,0
671176.600,0,0,0,1.000,1.000,1.000,-90.00,180.00,-22.50,CLOSED,0
671176.604,0,0,0,1.000,1.000,1.000,-90.00,180.00,-22.50,CLOSED,0
671176.608,0,0,0,1.000,1.000,1.000,-90.00,180.00,-22.50,CLOSED,0
671176.618,0,0,0,1.000,1.000,1.000,-90.00,180.00,-22.50,CLOSED,0
671176.623,0,0,0,1.000,1.000,1.000,-90.00,180.00,-22.50,CLOSED,0
671176.627,0,0,0,1.000,1.000,1.000,-90.00,180.00,-22.50,CLOSED,0
671176.631,0,0,0,1.000,1.000,1.000,-90.00,180.00,-22.50,CLOSED,0
671176.636,0,0,0,1.000,1.000,1.000,-90.00,180.00,-22.50,CLOSED,0
671176.639,0,0,0,1.000,1.000,1.000,-90.00,180.00,-22.50,CLOSED,0
671176.644,0,0,0,1.000,1.000,1.000,-90.00,180.00,-22.50,CLOSED,0
671176.648,0,0,0,1.000,1.000,1.000,-90.00,180.00,-22.50,CLOSED,0
671176.652,0,0,0,1.000,1.000,1.000,-90.00,180.00,-22.50,CLOSED,0
671176.657,0,0,0,1.000,1.000,1.000,-90.00,180.00,-22.50,CLOSED,0
671176.661,0,0,0,1.000,1.000,1.000,-90.00,180.00,-22.50,CLOSED,0
671176.665,0,0,0,1.000,1.000,1.000,-90.00,180.00,-22.50,CLOSED,0
671176.669,0,0,0,1.000,1.000,1.000,-90.00,180.00,-22.50,CLOSED,0
671176.673,0,0,0,1.000,1.000,1.000,-90.00,180.00,-22.50,CLOSED,0
671176.677,0,0,0,1.000,1.000,1.000,-90.00,180.00,-22.50,CLOSED,0
671176.681,0,0,0,1.000,1.000,1.000,-90.00,180.00,-22.50,CLOSED,0
671176.686,0,0,0,1.000,1.000,1.000,-90.00,180.00,-22.50,CLOSED,0
671176.690,0,0,0,1.000,1.000,1.000,-90.00,180.00,-22.50,CLOSED,0
671176.694,0,0,0,1.000,1.000,1.000,-90.00,180.00,-22.50,CLOSED,0
671176.698,0,0,0,1.000,1.000,1.000,-90.00,180.00,-22.50,CLOSED,0
671176.702,0,0,0,1.000,1.000,1.000,-90.00,180.00,-22.50,CLOSED,0
671176.706,0,0,0,1.000,1.000,1.000,-90.00,180.00,-22.50,CLOSED,0
671176.710,0,0,0,1.000,1.000,1.000,-90.00,180.00,-22.50,CLOSED,0
671176.714,0,0,0,1.000,1.000,1.000,-90.00,180.00,-22.50,CLOSED,0
671176.719,0,0,0,1.000,1.000,1.000,-90.00,180.00,-22.50,CLOSED,0
671176.723,0,0,0,1.000,1.000,1.000,-90.00,180.00,-22.50,CLOSED,0
671176.729,0,0,0,1.000,1.000,1.000,-90.00,180.00,-22.50,CLOSED,0
671176.737,0,0,0,1.000,1.000,1.000,-90.00,180.00,-22.50,CLOSED,0
671176.744,0,0,0,1.000,1.000,1.000,-90.00,180.00,-22.50,CLOSED,0
671176.751,0,0,0,1.000,1.000,1.000,-90.00,180.00,-22.50,CLOSED,0
671176.756,0,0,0,1.000,1.000,1.000,-90.00,180.00,-22.50,CLOSED,0
671176.762,0,0,0,1.000,1.000,1.000,-90.00,180.00,-22.50,CLOSED,0
671176.767,0,0,0,1.000,1.000,1.000,-90.00,180.00,-22.50,CLOSED,0
671176.775,0,0,0,1.000,1.000,1.000,-90.00,180.00,-22.50,CLOSED,0
671176.780,0,0,0,1.000,1.000,1.000,-90.00,180.00,-22.50,CLOSED,0
671176.784,0,0,0,1.000,1.000,1.000,-90.00,180.00,-22.50,CLOSED,0
671176.789,0,0,0,1.000,1.000,1.000,-90.00,180.00,-22.50,CLOSED,0
671176.794,0,0,0,1.000,1.000,1.000,-90.00,180.00,-22.50,CLOSED,0
671176.798,0,0,0,1.000,1.000,1.000,-90.00,180.00,-22.50,CLOSED,0
671176.804,0,0,0,1.000,1.000,1.000,-90.00,180.00,-22.50,CLOSED,0
671176.812,0,0,0,1.000,1.000,1.000,-90.00,180.00,-22.50,CLOSED,0
671176.820,0,0,0,1.000,1.000,1.000,-90.00,180.00,-22.50,CLOSED,0
671176.824,0,0,0,1.000,1.000,1.000,-90.00,180.00,-22.50,CLOSED,0
671176.828,0,0,0,1.000,1.000,1.000,-90.00,180.00,-22.50,CLOSED,0
671176.832,0,0,0,1.000,1.000,1.000,-90.00,180.00,-22.50,CLOSED,0
671176.837,0,0,0,1.000,1.000,1.000,-90.00,180.00,-22.50,CLOSED,0
671176.840,0,0,0,1.000,1.000,1.000,-90.00,180.00,-22.50,CLOSED,0
671176.844,0,0,0,1.000,1.000,1.000,-90.00,180.00,-22.50,CLOSED,0
671176.854,0,0,0,1.000,1.000,1.000,-90.00,180.00,-22.50,CLOSED,0
671176.862,0,0,0,1.000,1.000,1.000,-90.00,180.00,-22.50,CLOSED,0
671176.869,0,0,0,1.000,1.000,1.000,-90.00,180.00,-22.50,CLOSED,0
671176.876,0,0,0,1.000,1.000,1.000,-90.00,180.00,-22.50,CLOSED,0
671176.880,0,0,0,1.000,1.000,1.000,-90.00,180.00,-22.50,CLOSED,0
671176.886,0,0,0,1.000,1.000,1.000,-90.00,180.00,-22.50,CLOSED,0
671176.889,0,0,0,1.000,1.000,1.000,-90.00,180.00,-22.50,CLOSED,0
671176.894,0,0,0,1.000,1.000,1.000,-90.00,180.00,-22.50,CLOSED,0
671176.898,0,0,0,1.000,1.000,1.000,-90.00,180.00,-22.50,CLOSED,0
671176.902,0,0,0,1.000,1.000,1.000,-90.00,180.00,-22.50,CLOSED,0
671176.906,0,0,0,1.000,1.000,1.000,-90.00,180.00,-22.50,CLOSED,0
671176.910,0,0,0,1.000,1.000,1.000,-90.00,180.00,-22.50,CLOSED,0
671176.916,0,0,0,1.000,1.000,1.000,-90.00,180.00,-22.50,CLOSED,0
671176.922,0,0,0,1.000,1.000,1.000,-90.00,180.00,-22.50,CLOSED,0
671176.928,0,0,0,1.000,1.000,1.000,-90.00,180.00,-22.50,CLOSED,0
671176.932,0,0,0,1.000,1.000,1.000,-90.00,180.00,-22.50,CLOSED,0
671176.937,0,0,0,1.000,1.000,1.000,-90.00,180.00,-22.50,CLOSED,0
671176.945,0,0,0,1.000,1.000,1.000,-90.00,180.00,-22.50,CLOSED,0
671176.952,0,0,0,1.000,1.000,1.000,-90.00,180.00,-22.50,CLOSED,0
671176.957,0,0,0,1.000,1.000,1.000,-90.00,180.00,-22.50,CLOSED,0
671176.962,0,0,0,1.000,1.000,1.000,-90.00,180.00,-22.50,CLOSED,0
671176.966,0,0,0,1.000,1.000,1.000,-90.00,180.00,-22.50,CLOSED,0
671176.970,0,0,0,1.000,1.000,1.000,-90.00,180.00,-22.50,CLOSED,0
671176.979,0,0,0,1.000,1.000,1.000,-90.00,180.00,-22.50,CLOSED,0
671176.987,0,0,0,1.000,1.000,1.000,-90.00,180.00,-22.50,CLOSED,0
671176.994,0,0,0,1.000,1.000,1.000,-90.00,180.00,-22.50,CLOSED,0
671177.000,0,0,0,1.000,1.000,1.000,-90.00,180.00,-22.50,CLOSED,0
671177.007,0,0,0,1.000,1.000,1.000,-90.00,180.00,-22.50,CLOSED,0
671177.015,0,0,0,1.000,1.000,1.000,-90.00,180.00,-22.50,CLOSED,0
671177.024,0,0,0,1.000,1.000,1.000,-90.00,180.00,-22.50,CLOSED,0
671177.032,0,0,0,1.000,1.000,1.000,-90.00,180.00,-22.50,CLOSED,0
671177.040,0,0,0,1.000,1.000,1.000,-90.00,180.00,-22.50,CLOSED,0
671177.048,0,0,0,1.000,1.000,1.000,-90.00,180.00,-22.50,CLOSED,0
671177.056,0,0,0,1.000,1.000,1.000,-90.00,180.00,-22.50,CLOSED,0
671177.064,0,0,0,1.000,1.000,1.000,-90.00,180.00,-22.50,CLOSED,0
671177.072,0,0,0,1.000,1.000,1.000,-90.00,180.00,-22.50,CLOSED,0
671177.081,0,0,0,1.000,1.000,1.000,-90.00,180.00,-22.50,CLOSED,0
671177.089,0,0,0,1.000,1.000,1.000,-90.00,180.00,-22.50,CLOSED,0
671177.097,0,0,0,1.000,1.000,1.000,-90.00,180.00,-22.50,CLOSED,0
671177.105,0,0,0,1.000,1.000,1.000,-90.00,180.00,-22.50,CLOSED,0
671177.113,0,0,0,1.000,1.000,1.000,-90.00,180.00,-22.50,CLOSED,0
671177.121,0,0,0,1.000,1.000,1.000,-90.00,180.00,-22.50,CLOSED,0
671177.125,0,0,0,1.000,1.000,1.000,-90.00,180.00,-22.50,CLOSED,0
671177.131,0,0,0,1.000,1.000,1.000,-90.00,180.00,-22.50,CLOSED,0
671177.135,0,0,0,1.000,1.000,1.000,-90.00,180.00,-22.50,CLOSED,0
671177.139,0,0,0,1.000,1.000,1.000,-90.00,180.00,-22.50,CLOSED,0
671177.142,0,0,0,1.000,1.000,1.000,-90.00,180.00,-22.50,CLOSED,0
671177.146,0,0,0,1.000,1.000,1.000,-90.00,180.00,-22.50,CLOSED,0
671177.152,0,0,0,1.000,1.000,1.000,-90.00,180.00,-22.50,CLOSED,0
671177.156,0,0,0,1.000,1.000,1.000,-90.00,180.00,-22.50,CLOSED,0
671177.160,0,0,0,1.000,1.000,1.000,-90.00,180.00,-22.50,CLOSED,0
671177.165,0,0,0,1.000,1.000,1.000,-90.00,180.00,-22.50,CLOSED,0
671177.170,0,0,0,1.000,1.000,1.000,-90.00,180.00,-22.50,CLOSED,0
671177.175,0,0,0,1.000,1.000,1.000,-90.00,180.00,-22.50,CLOSED,0
671177.179,0,0,0,1.000,1.000,1.000,-90.00,180.00,-22.50,CLOSED,0
671177.184,0,0,0,1.000,1.000,1.000,-90.00,180.00,-22.50,CLOSED,0
671177.188,0,0,0,1.000,1.000,1.000,-90.00,180.00,-22.50,CLOSED,0
671177.192,0,0,0,1.000,1.000,1.000,-90.00,180.00,-22.50,CLOSED,0
671177.196,0,0,0,1.000,1.000,1.000,-90.00,180.00,-22.50,CLOSED,0
671177.199,0,0,0,1.000,1.000,1.000,-90.00,180.00,-22.50,CLOSED,0
671177.203,0,0,0,1.000,1.000,1.000,-90.00,180.00,-22.50,CLOSED,0
671177.208,0,0,0,1.000,1.000,1.000,-90.00,180.00,-22.50,CLOSED,0
671177.212,0,0,0,1.000,1.000,1.000,-90.00,180.00,-22.50,CLOSED,0
671177.216,0,0,0,1.000,1.000,1.000,-90.00,180.00,-22.50,CLOSED,0
671177.221,0,0,0,1.000,1.000,1.000,-90.00,180.00,-22.50,CLOSED,0
671177.227,0,0,0,0.996,1.000,1.000,-90.00,180.00,-22.50,CLOSED,0
671177.231,0,0,0,0.993,1.000,1.000,-90.00,180.00,-22.50,CLOSED,0
671177.235,0,0,0,1.000,1.000,1.000,-90.00,180.00,-22.50,CLOSED,0
671177.239,0,0,0,1.000,1.000,1.000,-90.00,180.00,-22.50,CLOSED,0
671177.243,0,0,0,1.000,1.000,1.000,-90.00,180.00,-22.50,CLOSED,0
671177.247,0,0,0,1.000,1.000,1.000,-90.00,180.00,-22.50,CLOSED,0
671177.251,0,0,0,1.000,1.000,1.000,-90.00,180.00,-22.50,CLOSED,0
671177.255,0,0,0,1.000,1.000,1.000,-90.00,180.00,-22.50,CLOSED,0
671177.260,0,0,0,0.990,1.000,1.000,-90.00,180.00,-22.50,CLOSED,0
671177.264,0,0,0,0.999,1.000,1.000,-90.00,180.00,-22.50,CLOSED,0
671177.268,0,0,0,0.991,1.000,1.000,-90.00,180.00,-22.50,CLOSED,0
671177.277,0,0,0,0.992,1.000,1.000,-90.00,180.00,-22.50,CLOSED,0
671177.281,0,0,0,0.998,1.000,1.000,-90.00,180.00,-22.50,CLOSED,0
671177.287,0,0,0,1.000,1.000,1.000,-90.00,180.00,-22.50,CLOSED,0
671177.290,0,0,0,1.000,1.000,1.000,-90.00,180.00,-22.50,CLOSED,0
671177.294,0,0,0,1.000,1.000,1.000,-90.00,180.00,-22.50,CLOSED,0
671177.298,0,0,0,1.000,1.000,1.000,-90.00,180.00,-22.50,CLOSED,0
671177.305,0,0,0,1.000,1.000,1.000,-90.00,180.00,-22.50,CLOSED,0
671177.309,0,0,0,1.000,1.000,1.000,-90.00,180.00,-22.50,CLOSED,0
671177.313,0,0,0,1.000,1.000,1.000,-90.00,180.00,-22.50,CLOSED,0
671177.318,0,0,0,1.000,1.000,1.000,-90.00,180.00,-22.50,CLOSED,0
671177.325,0,0,0,1.000,1.000,1.000,-90.00,180.00,-22.50,CLOSED,0
671177.333,0,0,0,1.000,1.000,1.000,-90.00,180.00,-22.50,CLOSED,0
671177.341,0,0,0,1.000,1.000,1.000,-90.00,180.00,-22.50,CLOSED,0
671177.348,0,0,0,1.000,1.000,1.000,-90.00,180.00,-22.50,CLOSED,0
671177.353,0,0,0,1.000,1.000,1.000,-90.00,180.00,-22.50,CLOSED,0
671177.357,0,0,0,1.000,1.000,1.000,-90.00,180.00,-22.50,CLOSED,0
671177.361,0,0,0,1.000,1.000,1.000,-90.00,180.00,-22.50,CLOSED,0
671177.365,0,0,0,1.000,1.000,1.000,-90.00,180.00,-22.50,CLOSED,0
671177.369,0,0,0,1.000,1.000,1.000,-90.00,180.00,-22.50,CLOSED,0
671177.373,0,0,0,1.000,1.000,1.000,-90.00,180.00,-22.50,CLOSED,0
671177.377,0,0,0,1.000,1.000,1.000,-90.00,180.00,-22.50,CLOSED,0
671177.383,0,0,0,1.000,1.000,1.000,-90.00,180.00,-22.50,CLOSED,0
671177.387,0,0,0,1.000,1.000,1.000,-90.00,180.00,-22.50,CLOSED,0
671177.391,0,0,0,1.000,1.000,1.000,-90.00,180.00,-22.50,CLOSED,0
671177.395,0,0,0,1.000,1.000,1.000,-90.00,180.00,-22.50,CLOSED,0
671177.399,0,0,0,1.000,1.000,1.000,-90.00,180.00,-22.50,CLOSED,0
671177.403,0,0,0,1.000,1.000,1.000,-90.00,180.00,-22.50,CLOSED,0
671177.407,0,0,0,1.000,1.000,1.000,-90.00,180.00,-22.50,CLOSED,0
671177.412,0,0,0,1.000,1.000,1.000,-90.00,180.00,-22.50,CLOSED,0
671177.416,0,0,0,1.000,1.000,1.000,-90.00,180.00,-22.50,CLOSED,0
671177.421,0,0,0,1.000,1.000,1.000,-90.00,180.00,-22.50,CLOSED,0
671177.425,0,0,0,1.000,1.000,1.000,-90.00,180.00,-22.50,CLOSED,0
671177.431,0,0,0,1.000,1.000,1.000,-90.00,180.00,-22.50,CLOSED,0
671177.436,0,0,0,1.000,1.000,1.000,-90.00,180.00,-22.50,CLOSED,0
671177.440,0,0,0,1.000,1.000,1.000,-90.00,180.00,-22.50,CLOSED,0
671177.444,0,0,0,1.000,1.000,1.000,-90.00,180.00,-22.50,CLOSED,0
671177.448,0,0,0,1.000,1.000,1.000,-90.00,180.00,-22.50,CLOSED,0
671177.452,0,0,0,1.000,1.000,1.000,-90.00,180.00,-22.50,CLOSED,0
671177.456,0,0,0,1.000,1.000,1.000,-90.00,180.00,-22.50,CLOSED,0
671177.461,0,0,0,1.000,1.000,1.000,-90.00,180.00,-22.50,CLOSED,0
671177.465,0,0,0,1.000,1.000,1.000,-90.00,180.00,-22.50,CLOSED,0
671177.470,0,0,0,1.000,1.000,1.000,-90.00,180.00,-22.50,CLOSED,0
671177.478,0,0,0,1.000,1.000,1.000,-90.00,180.00,-22.50,CLOSED,0
671177.482,0,0,0,1.000,1.000,1.000,-90.00,180.00,-22.50,CLOSED,0
671177.489,0,0,0,1.000,1.000,1.000,-90.00,180.00,-22.50,CLOSED,0
671177.493,0,0,0,1.000,1.000,1.000,-90.00,180.00,-22.50,CLOSED,0
671177.497,0,0,0,1.000,1.000,1.000,-90.00,180.00,-22.50,CLOSED,0
671177.501,0,0,0,1.000,1.000,1.000,-90.00,180.00,-22.50,CLOSED,0
671177.506,0,0,0,1.000,1.000,1.000,-90.00,180.00,-22.50,CLOSED,0
671177.510,0,0,0,1.000,1.000,1.000,-90.00,180.00,-22.50,CLOSED,0
671177.516,0,0,0,1.000,1.000,1.000,-90.00,180.00,-22.50,CLOSED,0
671177.524,0,0,0,1.000,1.000,1.000,-90.00,180.00,-22.50,CLOSED,0
671177.531,0,0,0,1.000,1.000,1.000,-90.00,180.00,-22.50,CLOSED,0
671177.539,0,0,0,1.000,1.000,1.000,-90.00,180.00,-22.50,CLOSED,0
671177.546,0,0,0,1.000,1.000,1.000,-90.00,180.00,-22.50,CLOSED,0
671177.553,0,0,0,1.000,1.000,1.000,-90.00,180.00,-22.50,CLOSED,0
671177.561,0,0,0,1.000,1.000,1.000,-90.00,180.00,-22.50,CLOSED,0
671177.568,0,0,0,1.000,1.000,1.000,-90.00,180.00,-22.50,CLOSED,0
671177.576,0,0,0,1.000,1.000,1.000,-90.00,180.00,-22.50,CLOSED,0
671177.583,0,0,0,1.000,1.000,1.000,-90.00,180.00,-22.50,CLOSED,0
671177.588,0,0,0,1.000,1.000,1.000,-90.00,180.00,-22.50,CLOSED,0
671177.596,0,0,0,1.000,1.000,1.000,-90.00,180.00,-22.50,CLOSED,0
671177.603,0,0,0,1.000,1.000,1.000,-90.00,180.00,-22.50,CLOSED,0
671177.608,0,0,0,1.000,1.000,1.000,-90.00,180.00,-22.50,CLOSED,0
671177.612,0,0,0,1.000,1.000,1.000,-90.00,180.00,-22.50,CLOSED,0
671177.616,0,0,0,1.000,1.000,1.000,-90.00,180.00,-22.50,CLOSED,0
671177.621,0,0,0,1.000,1.000,1.000,-90.00,180.00,-22.50,CLOSED,0
671177.625,0,0,0,1.000,1.000,1.000,-90.00,180.00,-22.50,CLOSED,0
671177.629,0,0,0,1.000,1.000,1.000,-90.00,180.00,-22.50,CLOSED,0
671177.635,0,0,0,1.000,1.000,1.000,-90.00,180.00,-22.50,CLOSED,0
671177.639,0,0,0,1.000,1.000,1.000,-90.00,180.00,-22.50,CLOSED,0
671177.642,0,0,0,1.000,1.000,1.000,-90.00,180.00,-22.50,CLOSED,0
671177.646,0,0,0,1.000,1.000,1.000,-90.00,180.00,-22.50,CLOSED,0
671177.650,0,0,0,1.000,1.000,1.000,-90.00,180.00,-22.50,CLOSED,0
671177.654,0,0,0,1.000,1.000,1.000,-90.00,180.00,-22.50,CLOSED,0
671177.659,0,0,0,1.000,1.000,1.000,-90.00,180.00,-22.50,CLOSED,0
671177.666,0,0,0,1.000,1.000,1.000,-90.00,180.00,-22.50,CLOSED,0
671177.678,0,0,0,1.000,1.000,1.000,-90.00,180.00,-22.50,CLOSED,0
671177.683,0,0,0,1.000,1.000,1.000,-90.00,180.00,-22.50,CLOSED,0
671177.690,0,0,0,1.000,1.000,1.000,-90.00,180.00,-22.50,CLOSED,0
671177.696,0,0,0,1.000,1.000,1.000,-90.00,180.00,-22.50,CLOSED,0
671177.701,0,0,0,1.000,1.000,1.000,-90.00,180.00,-22.50,CLOSED,0
671177.705,0,0,0,1.000,1.000,1.000,-90.00,180.00,-22.50,CLOSED,0
671177.709,0,0,0,1.000,1.000,1.000,-90.00,180.00,-22.50,CLOSED,0
671177.713,0,0,0,1.000,1.000,1.000,-90.00,180.00,-22.50,CLOSED,0
671177.717,0,0,0,1.000,1.000,1.000,-90.00,180.00,-22.50,CLOSED,0
671177.721,0,0,0,1.000,1.000,1.000,-90.00,180.00,-22.50,CLOSED,0
671177.730,0,0,0,1.000,1.000,1.000,-90.00,180.00,-22.50,CLOSED,0
671177.735,0,0,0,1.000,1.000,1.000,-90.00,180.00,-22.50,CLOSED,0
671177.740,0,0,0,1.000,1.000,1.000,-90.00,180.00,-22.50,CLOSED,0
671177.743,0,0,0,1.000,1.000,1.000,-90.00,180.00,-22.50,CLOSED,0
671177.747,0,0,0,1.000,1.000,1.000,-90.00,180.00,-22.50,CLOSED,0
671177.752,0,0,0,1.000,1.000,1.000,-90.00,180.00,-22.50,CLOSED,0
671177.757,0,0,0,1.000,1.000,1.000,-90.00,180.00,-22.50,CLOSED,0
671177.760,0,0,0,1.000,1.000,1.000,-90.00,180.00,-22.50,CLOSED,0
671177.764,0,0,0,1.000,1.000,1.000,-90.00,180.00,-22.50,CLOSED,0
671177.770,0,0,0,1.000,1.000,1.000,-90.00,180.00,-22.50,CLOSED,0
671177.774,0,0,0,1.000,1.000,1.000,-90.00,180.00,-22.50,CLOSED,0
671177.778,0,0,0,1.000,1.000,1.000,-90.00,180.00,-22.50,CLOSED,0
671177.784,0,0,0,1.000,1.000,1.000,-90.00,180.00,-22.50,CLOSED,0
671177.788,0,0,0,1.000,1.000,1.000,-90.00,180.00,-22.50,CLOSED,0
671177.793,0,0,0,1.000,1.000,1.000,-90.00,180.00,-22.50,CLOSED,0
671177.797,0,0,0,1.000,1.000,1.000,-90.00,180.00,-22.50,CLOSED,0
671177.801,0,0,0,1.000,1.000,1.000,-90.00,180.00,-22.50,CLOSED,0
671177.805,0,0,0,1.000,1.000,1.000,-90.00,180.00,-22.50,CLOSED,0
671177.809,0,0,0,1.000,1.000,1.000,-90.00,180.00,-22.50,CLOSED,0
671177.814,0,0,0,1.000,1.000,1.000,-90.00,180.00,-22.50,CLOSED,0
671177.820,0,0,0,1.000,1.000,1.000,-90.00,180.00,-22.50,CLOSED,0
671177.824,0,0,0,1.000,1.000,1.000,-90.00,180.00,-22.50,CLOSED,0
671177.828,0,0,0,1.000,1.000,1.000,-90.00,180.00,-22.50,CLOSED,0
671177.832,0,0,0,1.000,1.000,1.000,-90.00,180.00,-22.50,CLOSED,0
671177.837,0,0,0,1.000,1.000,1.000,-90.00,180.00,-22.50,CLOSED,0
671177.846,0,0,0,1.000,1.000,1.000,-90.00,180.00,-22.50,CLOSED,0
671177.854,0,0,0,1.000,1.000,1.000,-90.00,180.00,-22.50,CLOSED,0
671177.862,0,0,0,1.000,1.000,1.000,-90.00,180.00,-22.50,CLOSED,0
671177.869,0,0,0,1.000,1.000,1.000,-90.00,180.00,-22.50,CLOSED,0
671177.877,0,0,0,1.000,1.000,1.000,-90.00,180.00,-22.50,CLOSED,0
671177.884,0,0,0,1.000,1.000,1.000,-90.00,180.00,-22.50,CLOSED,0
671177.892,0,0,0,1.000,1.000,1.000,-90.00,180.00,-22.50,CLOSED,0
671177.901,0,0,0,1.000,1.000,1.000,-90.00,180.00,-22.50,CLOSED,0
671177.909,0,0,0,1.000,1.000,1.000,-90.00,180.00,-22.50,CLOSED,0
671177.918,0,0,0,1.000,1.000,1.000,-90.00,180.00,-22.50,CLOSED,0
671177.925,0,0,0,1.000,1.000,1.000,-90.00,180.00,-22.50,CLOSED,0
671177.931,0,0,0,1.000,1.000,1.000,-90.00,180.00,-22.50,CLOSED,0
671177.938,0,0,0,1.000,1.000,1.000,-90.00,180.00,-22.50,CLOSED,0
671177.942,0,0,0,1.000,1.000,1.000,-90.00,180.00,-22.50,CLOSED,0
671177.945,0,0,0,1.000,1.000,1.000,-90.00,180.00,-22.50,CLOSED,0
671177.949,0,0,0,1.000,1.000,1.000,-90.00,180.00,-22.50,CLOSED,0
671177.954,0,0,0,1.000,1.000,1.000,-90.00,180.00,-22.50,CLOSED,0
671177.958,0,0,0,1.000,1.000,1.000,-90.00,180.00,-22.50,CLOSED,0
671177.963,0,0,0,1.000,0.999,1.000,-90.00,180.00,-22.50,CLOSED,0
671177.968,0,0,0,1.000,0.998,1.000,-90.00,180.00,-22.50,CLOSED,0
671177.972,0,0,0,1.000,0.994,1.000,-90.00,180.00,-22.50,CLOSED,0
671177.975,0,0,0,1.000,0.973,1.000,-90.00,180.00,-22.50,CLOSED,0
671177.980,0,0,0,1.000,0.706,1.000,-90.00,180.00,-22.50,CLOSED,0
671177.984,0,0,0,1.000,0.835,1.000,-90.00,180.00,-22.50,CLOSED,0
671177.988,0,0,0,1.000,0.947,1.000,-90.00,180.00,-22.50,CLOSED,0
671177.992,0,0,0,1.000,0.962,1.000,-90.00,180.00,-22.50,CLOSED,0
671177.996,0,0,0,1.000,0.954,1.000,-90.00,180.00,-22.50,CLOSED,0
671178.000,0,0,0,1.000,0.886,1.000,-90.00,180.00,-22.50,CLOSED,0
671178.004,0,0,0,1.000,0.583,1.000,-90.00,180.00,-22.50,CLOSED,0
671178.008,0,0,0,1.000,0.745,1.000,-90.00,180.00,-22.50,CLOSED,0
671178.012,0,0,0,1.000,0.909,1.000,-90.00,180.00,-22.50,CLOSED,0
671178.016,0,0,0,1.000,0.961,0.999,-90.00,180.00,-22.50,CLOSED,0
671178.020,0,0,0,1.000,0.986,0.998,-90.00,180.00,-22.50,CLOSED,0
671178.024,0,0,0,1.000,0.994,0.997,-90.00,180.00,-22.50,CLOSED,0
671178.028,0,0,0,1.000,0.996,0.996,-90.00,180.00,-22.50,CLOSED,0
671178.032,0,0,0,1.000,0.997,0.995,-90.00,180.00,-22.50,CLOSED,0
671178.037,0,0,0,1.000,0.998,0.995,-90.00,180.00,-22.50,CLOSED,0
671178.041,0,0,0,1.000,0.998,0.994,-90.00,180.00,-22.50,CLOSED,0
671178.045,0,0,0,1.000,0.998,0.994,-90.00,180.00,-22.50,CLOSED,0
671178.049,0,0,0,1.000,0.999,0.992,-90.00,180.00,-22.50,CLOSED,0
671178.053,0,0,0,1.000,0.999,0.987,-90.00,180.00,-22.50,CLOSED,0
671178.057,0,0,0,1.000,0.999,0.979,-90.00,180.00,-22.50,CLOSED,0
671178.061,0,0,0,1.000,0.999,0.969,-90.00,180.00,-22.50,CLOSED,0
671178.065,0,0,0,1.000,1.000,0.968,-90.00,180.00,-22.50,CLOSED,0
671178.070,0,0,0,1.000,1.000,0.970,-90.00,180.00,-22.50,CLOSED,0
671178.074,0,0,0,1.000,1.000,0.976,-90.00,180.00,-22.50,CLOSED,0
671178.078,0,0,0,1.000,1.000,0.979,-90.00,180.00,-22.50,CLOSED,0
671178.082,0,0,0,1.000,0.999,0.980,-90.00,180.00,-22.50,CLOSED,0
671178.087,0,0,0,1.000,0.999,0.982,-90.00,180.00,-22.50,CLOSED,0
671178.091,0,0,0,1.000,0.998,0.983,-90.00,180.00,-22.50,CLOSED,0
671178.095,0,0,0,1.000,0.994,0.979,-90.00,180.00,-22.50,CLOSED,0
671178.099,0,0,0,1.000,0.980,0.973,-90.00,180.00,-22.50,CLOSED,0
671178.104,0,0,0,1.000,0.943,0.951,-90.00,180.00,-22.50,CLOSED,0
671178.108,0,0,0,1.000,0.888,0.924,-90.00,180.00,-22.50,CLOSED,0
671178.114,0,0,0,1.000,0.865,0.897,-90.00,180.00,-22.50,CLOSED,0
671178.120,0,0,0,1.000,0.869,0.887,-90.00,180.00,-22.50,CLOSED,0
671178.128,0,0,0,1.000,0.854,0.901,-90.00,180.00,-22.50,CLOSED,0
671178.135,0,0,0,1.000,0.831,0.929,-90.00,180.00,-22.50,CLOSED,0
671178.144,0,0,0,1.000,0.825,0.960,-90.00,180.00,-22.50,CLOSED,0
671178.152,0,0,0,1.000,0.859,0.977,-90.00,180.00,-22.50,CLOSED,0
671178.159,0,0,0,1.000,0.906,0.988,-90.00,180.00,-22.50,CLOSED,0
671178.167,0,0,0,1.000,0.942,0.992,-90.00,180.00,-22.50,CLOSED,0
671178.176,0,0,0,1.000,0.969,0.995,-90.00,180.00,-22.50,CLOSED,0
671178.185,0,0,0,1.000,0.981,0.997,-90.00,180.00,-22.50,CLOSED,0
671178.193,0,0,0,1.000,0.989,0.998,-90.00,180.00,-22.50,CLOSED,0
671178.202,0,0,0,1.000,0.992,0.998,-90.00,180.00,-22.50,CLOSED,0
671178.207,0,0,0,1.000,0.995,0.998,-90.00,180.00,-22.50,CLOSED,0
671178.210,0,0,0,1.000,0.996,0.998,-90.00,180.00,-22.50,CLOSED,0
671178.214,0,0,0,1.000,0.997,0.998,-90.00,180.00,-22.50,CLOSED,0
671178.218,0,0,0,1.000,0.996,0.997,-90.00,180.00,-22.50,CLOSED,0
671178.222,0,0,0,1.000,0.995,0.996,-90.00,180.00,-22.50,CLOSED,0
671178.226,0,0,0,1.000,0.989,0.994,-90.00,180.00,-22.50,CLOSED,0
671178.235,0,0,0,1.000,0.962,0.989,-90.00,180.00,-22.50,CLOSED,0
671178.242,0,0,0,1.000,0.843,0.982,-90.00,180.00,-22.50,CLOSED,0
671178.245,0,0,0,1.000,0.502,0.973,-90.00,180.00,-22.50,CLOSED,0
671178.250,0,0,0,1.000,0.804,0.970,-90.00,180.00,-22.50,CLOSED,0
671178.254,0,0,0,1.000,0.892,0.972,-90.00,180.00,-22.50,CLOSED,0
671178.258,0,0,0,1.000,0.892,0.979,-90.00,180.00,-22.50,CLOSED,0
671178.262,0,0,0,1.000,0.818,0.984,-90.00,180.00,-22.50,CLOSED,0
671178.266,0,0,0,1.000,0.657,0.989,-90.00,180.00,-22.50,CLOSED,0
671178.274,0,0,0,1.000,0.515,0.990,-90.00,180.00,-22.50,CLOSED,0
671178.278,0,0,0,1.000,0.650,0.990,-90.00,180.00,-22.50,CLOSED,0
671178.281,0,0,0,1.000,0.754,0.989,-90.00,180.00,-22.50,CLOSED,0
671178.286,0,0,0,1.000,0.770,0.988,-90.00,180.00,-22.50,CLOSED,0
671178.291,0,0,0,1.000,0.735,0.985,-90.00,180.00,-22.50,CLOSED,0
671178.295,0,0,0,1.000,0.698,0.983,-90.00,180.00,-22.50,CLOSED,0
671178.299,0,0,0,1.000,0.645,0.984,-90.00,180.00,-22.50,CLOSED,0
671178.303,0,0,0,1.000,0.608,0.985,-90.00,180.00,-22.50,CLOSED,0
671178.307,0,0,0,1.000,0.618,0.989,-90.00,180.00,-22.50,CLOSED,0
671178.311,0,0,0,1.000,0.718,0.990,-90.00,180.00,-22.50,CLOSED,0
671178.315,0,0,0,1.000,0.775,0.992,-90.00,180.00,-22.50,CLOSED,0
671178.321,0,0,0,1.000,0.844,0.990,-90.00,180.00,-22.50,CLOSED,0
671178.329,0,0,0,1.000,0.898,0.991,-90.00,180.00,-22.50,CLOSED,0
671178.337,0,0,0,1.000,0.915,0.989,-90.00,180.00,-22.50,CLOSED,0
671178.341,0,0,0,1.000,0.913,0.986,-90.00,180.00,-22.50,CLOSED,0
671178.345,0,0,0,1.000,0.908,0.983,-90.00,180.00,-22.50,CLOSED,0
671178.349,0,0,0,1.000,0.883,0.972,-90.00,180.00,-22.50,CLOSED,0
671178.353,0,0,0,1.000,0.875,0.955,-90.00,180.00,-22.50,CLOSED,0
671178.357,0,0,0,1.000,0.937,0.949,-90.00,180.00,-22.50,CLOSED,0
671178.361,0,0,0,1.000,0.978,0.950,-90.00,180.00,-22.50,CLOSED,0
671178.365,0,0,0,1.000,0.992,0.962,-90.00,180.00,-22.50,CLOSED,0
671178.370,0,0,0,1.000,0.996,0.970,-90.00,180.00,-22.50,CLOSED,0
671178.374,0,0,0,1.000,0.997,0.974,-90.00,180.00,-22.50,CLOSED,0
671178.377,0,0,0,1.000,0.998,0.978,-90.00,180.00,-22.50,CLOSED,0
671178.383,0,0,0,1.000,0.998,0.979,-90.00,180.00,-22.50,CLOSED,0
671178.391,0,0,0,1.000,0.997,0.977,-90.00,180.00,-22.50,CLOSED,0
671178.399,0,0,0,1.000,0.994,0.975,-90.00,180.00,-22.50,CLOSED,0
671178.404,0,0,0,1.000,0.987,0.974,-90.00,180.00,-22.50,CLOSED,0
671178.411,0,0,0,1.000,0.955,0.970,-90.00,180.00,-22.50,CLOSED,0
671178.418,0,0,0,1.000,0.852,0.962,-90.00,180.00,-22.50,CLOSED,0
671178.422,0,0,0,1.000,0.690,0.959,-90.00,180.00,-22.50,CLOSED,0
671178.426,0,0,0,1.000,0.531,0.957,-90.00,180.00,-22.50,CLOSED,0
671178.429,0,0,0,1.000,0.596,0.954,-90.00,180.00,-22.50,CLOSED,0
671178.433,0,0,0,1.000,0.509,0.960,-90.00,180.00,-22.50,CLOSED,0
671178.437,0,0,0,1.000,0.617,0.963,-90.00,180.00,-22.50,CLOSED,0
671178.445,0,0,0,1.000,0.725,0.964,-90.00,180.00,-22.50,CLOSED,0
671178.449,0,0,0,1.000,0.760,0.968,-90.00,180.00,-22.50,CLOSED,0
671178.454,0,0,0,1.000,0.755,0.971,-90.00,180.00,-22.50,CLOSED,0
671178.458,0,0,0,1.000,0.711,0.976,-90.00,180.00,-22.50,CLOSED,0
671178.462,0,0,0,1.000,0.637,0.980,-90.00,180.00,-22.50,CLOSED,0
671178.467,0,0,0,1.000,0.555,0.980,-90.00,180.00,-22.50,CLOSED,0
671178.472,0,0,0,1.000,0.519,0.983,-90.00,180.00,-22.50,CLOSED,0
671178.481,0,0,0,1.000,0.550,0.983,-90.00,180.00,-22.50,CLOSED,0
671178.485,0,0,0,1.000,0.720,0.981,-90.00,180.00,-22.50,CLOSED,0
671178.490,0,0,0,1.000,0.863,0.972,-90.00,180.00,-22.50,CLOSED,0
671178.494,0,0,0,1.000,0.956,0.953,-90.00,180.00,-22.50,CLOSED,0
671178.498,0,0,0,1.000,0.980,0.932,-90.00,180.00,-22.50,CLOSED,0
671178.503,0,0,0,1.000,0.987,0.903,-90.00,180.00,-22.50,CLOSED,0
671178.511,0,0,0,1.000,0.988,0.892,-90.00,180.00,-22.50,CLOSED,0
671178.515,0,0,0,1.000,0.986,0.895,-90.00,180.00,-22.50,CLOSED,0
671178.520,0,0,0,1.000,0.977,0.924,-90.00,180.00,-22.50,CLOSED,0
671178.523,0,0,0,1.000,0.950,0.968,-90.00,180.00,-22.50,CLOSED,0
671178.527,0,0,0,1.000,0.926,0.987,-90.00,180.00,-22.50,CLOSED,0
671178.531,0,0,0,1.000,0.941,0.996,-90.00,180.00,-22.50,CLOSED,0
671178.536,0,0,0,1.000,0.975,0.999,-90.00,180.00,-22.50,CLOSED,0
671178.543,0,0,0,1.000,0.987,0.999,-90.00,180.00,-22.50,CLOSED,0
671178.550,0,0,0,1.000,0.995,0.999,-90.00,180.00,-22.50,CLOSED,0
671178.558,0,0,0,1.000,0.999,0.999,-90.00,180.00,-22.50,CLOSED,0
671178.562,0,0,0,1.000,1.000,0.999,-90.00,180.00,-22.50,CLOSED,0
671178.566,0,0,0,1.000,1.000,0.999,-90.00,180.00,-22.50,CLOSED,0
671178.571,0,0,0,1.000,1.000,0.999,-90.00,180.00,-22.50,CLOSED,0
671178.575,0,0,0,1.000,1.000,1.000,-90.00,180.00,-22.50,CLOSED,0
671178.579,0,0,0,1.000,1.000,1.000,-90.00,180.00,-22.50,CLOSED,0
671178.583,0,0,0,1.000,1.000,1.000,-90.00,180.00,-22.50,CLOSED,0
671178.588,0,0,0,1.000,1.000,1.000,-90.00,180.00,-22.50,CLOSED,0
671178.595,0,0,0,1.000,0.998,1.000,-90.00,180.00,-22.50,CLOSED,0
671178.602,0,0,0,0.999,0.998,1.000,-90.00,180.00,-22.50,CLOSED,0
671178.605,0,0,0,0.999,0.998,1.000,-90.00,180.00,-22.50,CLOSED,0
671178.610,0,0,0,0.999,0.999,1.000,-90.00,180.00,-22.50,CLOSED,0
671178.614,0,0,0,1.000,1.000,1.000,-90.00,180.00,-22.50,CLOSED,0
671178.618,0,0,0,1.000,1.000,1.000,-90.00,180.00,-22.50,CLOSED,0
671178.625,0,0,0,1.000,1.000,1.000,-90.00,180.00,-22.50,CLOSED,0
671178.629,0,0,0,1.000,1.000,1.000,-90.00,180.00,-22.50,CLOSED,0
671178.636,0,0,0,1.000,1.000,1.000,-90.00,180.00,-22.50,CLOSED,0
671178.639,0,0,0,1.000,1.000,1.000,-90.00,180.00,-22.50,CLOSED,0
671178.643,0,0,0,1.000,1.000,1.000,-90.00,180.00,-22.50,CLOSED,0
671178.647,0,0,0,1.000,1.000,1.000,-90.00,180.00,-22.50,CLOSED,0
671178.651,0,0,0,1.000,1.000,1.000,-90.00,180.00,-22.50,CLOSED,0
671178.658,0,0,0,1.000,1.000,1.000,-90.00,180.00,-22.50,CLOSED,0
671178.662,0,0,0,1.000,1.000,1.000,-90.00,180.00,-22.50,CLOSED,0
671178.667,0,0,0,1.000,1.000,1.000,-90.00,180.00,-22.50,CLOSED,0
671178.675,0,0,0,1.000,1.000,1.000,-90.00,180.00,-22.50,CLOSED,0
671178.682,0,0,0,1.000,1.000,1.000,-90.00,180.00,-22.50,CLOSED,0
671178.689,0,0,0,1.000,1.000,1.000,-90.00,180.00,-22.50,CLOSED,0
671178.696,0,0,0,1.000,1.000,1.000,-90.00,180.00,-22.50,CLOSED,0
671178.702,0,0,0,1.000,1.000,1.000,-90.00,180.00,-22.50,CLOSED,0
671178.710,0,0,0,1.000,1.000,1.000,-90.00,180.00,-22.50,CLOSED,0
671178.714,0,0,0,1.000,1.000,1.000,-90.00,180.00,-22.50,CLOSED,0
671178.719,0,0,0,1.000,1.000,1.000,-90.00,180.00,-22.50,CLOSED,0
671178.724,0,0,0,1.000,1.000,1.000,-90.00,180.00,-22.50,CLOSED,0
671178.728,0,0,0,1.000,1.000,1.000,-90.00,180.00,-22.50,CLOSED,0
671178.736,0,0,0,1.000,1.000,1.000,-90.00,180.00,-22.50,CLOSED,0
671178.740,0,0,0,1.000,1.000,1.000,-90.00,180.00,-22.50,CLOSED,0
671178.744,0,0,0,1.000,1.000,1.000,-90.00,180.00,-22.50,CLOSED,0
671178.748,0,0,0,1.000,1.000,1.000,-90.00,180.00,-22.50,CLOSED,0
671178.755,0,0,0,1.000,1.000,1.000,-90.00,180.00,-22.50,CLOSED,0
671178.759,0,0,0,1.000,1.000,1.000,-90.00,180.00,-22.50,CLOSED,0
671178.763,0,0,0,1.000,1.000,1.000,-90.00,180.00,-22.50,CLOSED,0
671178.769,0,0,0,1.000,1.000,1.000,-90.00,180.00,-22.50,CLOSED,0
671178.778,0,0,0,1.000,1.000,1.000,-90.00,180.00,-22.50,CLOSED,0
671178.785,0,0,0,1.000,1.000,1.000,-90.00,180.00,-22.50,CLOSED,0
671178.789,0,0,0,1.000,1.000,1.000,-90.00,180.00,-22.50,CLOSED,0
671178.793,0,0,0,1.000,1.000,1.000,-90.00,180.00,-22.50,CLOSED,0
671178.798,0,0,0,1.000,1.000,1.000,-90.00,180.00,-22.50,CLOSED,0
671178.807,0,0,0,1.000,1.000,1.000,-90.00,180.00,-22.50,CLOSED,0
671178.815,0,0,0,1.000,1.000,1.000,-90.00,180.00,-22.50,CLOSED,0
671178.820,0,0,0,1.000,1.000,1.000,-90.00,180.00,-22.50,CLOSED,0
671178.826,0,0,0,1.000,1.000,1.000,-90.00,180.00,-22.50,CLOSED,0
671178.832,0,0,0,1.000,1.000,1.000,-90.00,180.00,-22.50,CLOSED,0
671178.838,0,0,0,1.000,1.000,1.000,-90.00,180.00,-22.50,CLOSED,0
671178.842,0,0,0,1.000,1.000,1.000,-90.00,180.00,-22.50,CLOSED,0
671178.846,0,0,0,1.000,1.000,1.000,-90.00,180.00,-22.50,CLOSED,0
671178.851,0,0,0,1.000,1.000,1.000,-90.00,180.00,-22.50,CLOSED,0
671178.859,0,0,0,1.000,1.000,1.000,-90.00,180.00,-22.50,CLOSED,0
671178.864,0,0,0,1.000,1.000,1.000,-90.00,180.00,-22.50,CLOSED,0
671178.870,0,0,0,1.000,1.000,1.000,-90.00,180.00,-22.50,CLOSED,0
671178.878,0,0,0,1.000,1.000,1.000,-90.00,180.00,-22.50,CLOSED,0
671178.883,0,0,0,1.000,1.000,1.000,-90.00,180.00,-22.50,CLOSED,0
671178.888,0,0,0,1.000,1.000,1.000,-90.00,180.00,-22.50,CLOSED,0
671178.892,0,0,0,1.000,1.000,1.000,-90.00,180.00,-22.50,CLOSED,0
671178.901,0,0,0,1.000,1.000,1.000,-90.00,180.00,-22.50,CLOSED,0
671178.906,0,0,0,1.000,1.000,1.000,-90.00,180.00,-22.50,CLOSED,0
671178.909,0,0,0,1.000,1.000,1.000,-90.00,180.00,-22.50,CLOSED,0
671178.914,0,0,0,1.000,1.000,1.000,-90.00,180.00,-22.50,CLOSED,0
671178.920,0,0,0,1.000,1.000,1.000,-90.00,180.00,-22.50,CLOSED,0
671178.927,0,0,0,1.000,1.000,1.000,-90.00,180.00,-22.50,CLOSED,0
671178.932,0,0,0,1.000,1.000,1.000,-90.00,180.00,-22.50,CLOSED,0
671178.937,0,0,0,1.000,1.000,1.000,-90.00,180.00,-22.50,CLOSED,0
671178.942,0,0,0,1.000,1.000,1.000,-90.00,180.00,-22.50,CLOSED,0
671178.947,0,0,0,1.000,1.000,1.000,-90.00,180.00,-22.50,CLOSED,0
671178.952,0,0,0,1.000,1.000,1.000,-90.00,180.00,-22.50,CLOSED,0
671178.958,0,0,0,1.000,1.000,1.000,-90.00,180.00,-22.50,CLOSED,0
671178.964,0,0,0,1.000,1.000,1.000,-90.00,180.00,-22.50,CLOSED,0
671178.969,0,0,0,1.000,1.000,1.000,-90.00,180.00,-22.50,CLOSED,0
671178.974,0,0,0,1.000,1.000,1.000,-90.00,180.00,-22.50,CLOSED,0
671178.978,0,0,0,1.000,1.000,1.000,-90.00,180.00,-22.50,CLOSED,0
671178.982,0,0,0,1.000,1.000,1.000,-90.00,180.00,-22.50,CLOSED,0
671178.986,0,0,0,1.000,1.000,1.000,-90.00,180.00,-22.50,CLOSED,0
671178.991,0,0,0,1.000,1.000,1.000,-90.00,180.00,-22.50,CLOSED,0
671178.997,0,0,0,1.000,1.000,1.000,-90.00,180.00,-22.50,CLOSED,0
671179.004,0,0,0,1.000,1.000,1.000,-90.00,180.00,-22.50,CLOSED,0
671179.014,0,0,0,1.000,1.000,1.000,-90.00,180.00,-22.50,CLOSED,0
671179.025,0,0,0,1.000,1.000,1.000,-90.00,180.00,-22.50,CLOSED,0
671179.029,0,0,0,1.000,1.000,1.000,-90.00,180.00,-22.50,CLOSED,0
671179.034,0,0,0,1.000,1.000,1.000,-90.00,180.00,-22.50,CLOSED,0
671179.039,0,0,0,1.000,1.000,1.000,-90.00,180.00,-22.50,CLOSED,0
671179.043,0,0,0,1.000,1.000,1.000,-90.00,180.00,-22.50,CLOSED,0
671179.050,0,0,0,1.000,1.000,1.000,-90.00,180.00,-22.50,CLOSED,0
671179.055,0,0,0,1.000,1.000,1.000,-90.00,180.00,-22.50,CLOSED,0
671179.059,0,0,0,1.000,1.000,1.000,-90.00,180.00,-22.50,CLOSED,0
671179.063,0,0,0,1.000,1.000,1.000,-90.00,180.00,-22.50,CLOSED,0
671179.068,0,0,0,1.000,1.000,1.000,-90.00,180.00,-22.50,CLOSED,0
671179.075,0,0,0,1.000,1.000,1.000,-90.00,180.00,-22.50,CLOSED,0
671179.084,0,0,0,1.000,1.000,1.000,-90.00,180.00,-22.50,CLOSED,0
671179.091,0,0,0,1.000,1.000,1.000,-90.00,180.00,-22.50,CLOSED,0
671179.098,0,0,0,1.000,1.000,1.000,-90.00,180.00,-22.50,CLOSED,0
671179.103,0,0,0,1.000,1.000,1.000,-90.00,180.00,-22.50,CLOSED,0
671179.106,0,0,0,1.000,1.000,1.000,-90.00,180.00,-22.50,CLOSED,0
671179.111,0,0,0,1.000,1.000,1.000,-90.00,180.00,-22.50,CLOSED,0
671179.115,0,0,0,1.000,1.000,1.000,-90.00,180.00,-22.50,CLOSED,0
671179.122,0,0,0,1.000,1.000,1.000,-90.00,180.00,-22.50,CLOSED,0
671179.130,0,0,0,1.000,1.000,1.000,-90.00,180.00,-22.50,CLOSED,0
671179.138,0,0,0,1.000,1.000,1.000,-90.00,180.00,-22.50,CLOSED,0
671179.144,0,0,0,1.000,1.000,1.000,-90.00,180.00,-22.50,CLOSED,0
671179.150,0,0,0,1.000,1.000,1.000,-90.00,180.00,-22.50,CLOSED,0
671179.156,0,0,0,1.000,1.000,1.000,-90.00,180.00,-22.50,CLOSED,0
671179.161,0,0,0,1.000,1.000,1.000,-90.00,180.00,-22.50,CLOSED,0
671179.166,0,0,0,1.000,1.000,1.000,-90.00,180.00,-22.50,CLOSED,0
671179.170,0,0,0,1.000,1.000,1.000,-90.00,180.00,-22.50,CLOSED,0
671179.174,0,0,0,1.000,1.000,1.000,-90.00,180.00,-22.50,CLOSED,0
671179.182,0,0,0,1.000,1.000,1.000,-90.00,180.00,-22.50,CLOSED,0
671179.187,0,0,0,1.000,1.000,1.000,-90.00,180.00,-22.50,CLOSED,0
671179.191,0,0,0,1.000,1.000,1.000,-90.00,180.00,-22.50,CLOSED,0
671179.197,0,0,0,1.000,1.000,1.000,-90.00,180.00,-22.50,CLOSED,0
671179.204,0,0,0,1.000,1.000,1.000,-90.00,180.00,-22.50,CLOSED,0
671179.210,0,0,0,1.000,1.000,1.000,-90.00,180.00,-22.50,CLOSED,0
671179.219,0,0,0,1.000,1.000,1.000,-90.00,180.00,-22.50,CLOSED,0
671179.223,0,0,0,1.000,1.000,1.000,-90.00,180.00,-22.50,CLOSED,0
671179.228,0,0,0,1.000,1.000,1.000,-90.00,180.00,-22.50,CLOSED,0
671179.232,0,0,0,1.000,1.000,1.000,-90.00,180.00,-22.50,CLOSED,0
671179.237,0,0,0,1.000,1.000,1.000,-90.00,180.00,-22.50,CLOSED,0
671179.241,0,0,0,1.000,1.000,1.000,-90.00,180.00,-22.50,CLOSED,0
671179.245,0,0,0,1.000,1.000,1.000,-90.00,180.00,-22.50,CLOSED,0
671179.249,0,0,0,1.000,1.000,1.000,-90.00,180.00,-22.50,CLOSED,0
671179.254,0,0,0,1.000,1.000,1.000,-90.00,180.00,-22.50,CLOSED,0
671179.258,0,0,0,1.000,1.000,1.000,-90.00,180.00,-22.50,CLOSED,0
671179.264,0,0,0,1.000,1.000,1.000,-90.00,180.00,-22.50,CLOSED,0
671179.274,0,0,0,1.000,1.000,1.000,-90.00,180.00,-22.50,CLOSED,0
671179.281,0,0,0,1.000,1.000,1.000,-90.00,180.00,-22.50,CLOSED,0
671179.289,0,0,0,1.000,1.000,1.000,-90.00,180.00,-22.50,CLOSED,0
671179.295,0,0,0,1.000,1.000,1.000,-90.00,180.00,-22.50,CLOSED,0
671179.301,0,0,0,1.000,1.000,1.000,-90.00,180.00,-22.50,CLOSED,0
671179.307,0,0,0,1.000,1.000,1.000,-90.00,180.00,-22.50,CLOSED,0
671179.312,0,0,0,1.000,1.000,1.000,-90.00,180.00,-22.50,CLOSED,0
671179.321,0,0,0,1.000,1.000,1.000,-90.00,180.00,-22.50,CLOSED,0
671179.329,0,0,0,1.000,1.000,1.000,-90.00,180.00,-22.50,CLOSED,0
671179.339,0,0,0,1.000,1.000,1.000,-90.00,180.00,-22.50,CLOSED,0
671179.346,0,0,0,1.000,1.000,1.000,-90.00,180.00,-22.50,CLOSED,0
671179.354,0,0,0,1.000,1.000,1.000,-90.00,180.00,-22.50,CLOSED,0
671179.362,0,0,0,1.000,1.000,1.000,-90.00,180.00,-22.50,CLOSED,0
671179.370,0,0,0,1.000,1.000,1.000,-90.00,180.00,-22.50,CLOSED,0
671179.378,0,0,0,1.000,1.000,1.000,-90.00,180.00,-22.50,CLOSED,0
671179.384,0,0,0,1.000,1.000,1.000,-90.00,180.00,-22.50,CLOSED,0
671179.392,0,0,0,1.000,1.000,1.000,-90.00,180.00,-22.50,CLOSED,0
671179.401,0,0,0,1.000,1.000,1.000,-90.00,180.00,-22.50,CLOSED,0
671179.409,0,0,0,1.000,1.000,1.000,-90.00,180.00,-22.50,CLOSED,0
671179.417,0,0,0,1.000,1.000,1.000,-90.00,180.00,-22.50,CLOSED,0
671179.422,0,0,0,1.000,1.000,1.000,-90.00,180.00,-22.50,CLOSED,0
671179.426,0,0,0,1.000,1.000,1.000,-90.00,180.00,-22.50,CLOSED,0
671179.434,0,0,0,0.999,1.000,1.000,-90.00,180.00,-22.50,CLOSED,0
671179.442,0,0,0,0.992,1.000,1.000,-90.00,180.00,-22.50,CLOSED,0
671179.446,0,0,0,0.991,1.000,1.000,-90.00,180.00,-22.50,CLOSED,0
671179.450,0,0,0,0.997,1.000,1.000,-90.00,180.00,-22.50,CLOSED,0
671179.454,0,0,0,0.992,1.000,1.000,-90.00,180.00,-22.50,CLOSED,0
671179.458,0,0,0,0.989,1.000,1.000,-90.00,180.00,-22.50,CLOSED,0
671179.462,0,0,0,0.995,1.000,1.000,-90.00,180.00,-22.50,CLOSED,0
671179.466,0,0,0,0.987,1.000,1.000,-90.00,180.00,-22.50,CLOSED,0
671179.471,0,0,0,0.986,1.000,1.000,-90.00,180.00,-22.50,CLOSED,0
671179.476,0,0,0,0.989,1.000,1.000,-90.00,180.00,-22.50,CLOSED,0
671179.483,0,0,0,0.998,0.999,1.000,-90.00,180.00,-22.50,CLOSED,0
671179.488,0,0,0,0.999,0.950,1.000,-90.00,180.00,-22.50,CLOSED,0
671179.497,0,0,0,0.999,0.765,1.000,-90.00,180.00,-22.50,CLOSED,0
671179.503,0,0,0,0.995,0.989,1.000,-90.00,180.00,-22.50,CLOSED,0
671179.507,0,0,0,0.985,0.999,1.000,-90.00,180.00,-22.50,CLOSED,0
671179.511,0,0,0,0.989,1.000,1.000,-90.00,180.00,-22.50,CLOSED,0
671179.515,0,0,0,0.994,1.000,1.000,-90.00,180.00,-22.50,CLOSED,0
671179.520,0,0,0,0.997,1.000,1.000,-90.00,180.00,-22.50,CLOSED,0
671179.524,0,0,0,0.999,1.000,1.000,-90.00,180.00,-22.50,CLOSED,0
671179.528,0,0,0,0.999,1.000,1.000,-90.00,180.00,-22.50,CLOSED,0
671179.532,0,0,0,0.996,1.000,1.000,-90.00,180.00,-22.50,CLOSED,0
671179.536,0,0,0,0.999,1.000,1.000,-90.00,180.00,-22.50,CLOSED,0
671179.540,0,0,0,1.000,1.000,1.000,-90.00,180.00,-22.50,CLOSED,0
671179.544,0,0,0,1.000,1.000,1.000,-90.00,180.00,-22.50,CLOSED,0
671179.548,0,0,0,1.000,1.000,0.999,-90.00,180.00,-22.50,CLOSED,0
671179.553,0,0,0,1.000,1.000,0.998,-90.00,180.00,-22.50,CLOSED,0
671179.557,0,0,0,1.000,1.000,0.996,-90.00,180.00,-22.50,CLOSED,0
671179.561,0,0,0,1.000,1.000,0.994,-90.00,180.00,-22.50,CLOSED,0
671179.566,0,0,0,1.000,1.000,0.993,-90.00,180.00,-22.50,CLOSED,0
671179.571,0,0,0,1.000,1.000,0.992,-90.00,180.00,-22.50,CLOSED,0
671179.575,0,0,0,1.000,1.000,0.990,-90.00,180.00,-22.50,CLOSED,0
671179.579,0,0,0,1.000,1.000,0.988,-90.00,180.00,-22.50,CLOSED,0
671179.583,0,0,0,1.000,1.000,0.987,-90.00,180.00,-22.50,CLOSED,0
671179.587,0,0,0,1.000,1.000,0.986,-90.00,180.00,-22.50,CLOSED,0
671179.591,0,0,0,1.000,1.000,0.986,-90.00,180.00,-22.50,CLOSED,0
671179.595,0,0,0,1.000,1.000,0.989,-90.00,180.00,-22.50,CLOSED,0
671179.600,0,0,0,1.000,1.000,0.991,-90.00,180.00,-22.50,CLOSED,0
671179.609,0,0,0,1.000,1.000,0.993,-90.00,180.00,-22.50,CLOSED,0
671179.613,0,0,0,1.000,0.999,0.994,-90.00,180.00,-22.50,CLOSED,0
671179.616,0,0,0,1.000,0.999,0.994,-90.00,180.00,-22.50,CLOSED,0
671179.621,0,0,0,1.000,0.999,0.994,-90.00,180.00,-22.50,CLOSED,0
671179.624,0,0,0,1.000,0.999,0.994,-90.00,180.00,-22.50,CLOSED,0
671179.628,0,0,0,1.000,0.999,0.993,-90.00,180.00,-22.50,CLOSED,0
671179.633,0,0,0,1.000,0.999,0.993,-90.00,180.00,-22.50,CLOSED,0
671179.637,0,0,0,1.000,0.999,0.991,-90.00,180.00,-22.50,CLOSED,0
671179.641,0,0,0,1.000,0.999,0.989,-90.00,180.00,-22.50,CLOSED,0
671179.647,0,0,0,1.000,1.000,0.989,-90.00,180.00,-22.50,CLOSED,0
671179.653,0,0,0,1.000,1.000,0.988,-90.00,180.00,-22.50,CLOSED,0
671179.659,0,0,0,1.000,1.000,0.991,-90.00,180.00,-22.50,CLOSED,0
671179.663,0,0,0,1.000,1.000,0.995,-90.00,180.00,-22.50,CLOSED,0
671179.669,0,0,0,1.000,1.000,0.997,-90.00,180.00,-22.50,CLOSED,0
671179.673,0,0,0,1.000,1.000,0.998,-90.00,180.00,-22.50,CLOSED,0
671179.677,0,0,0,1.000,1.000,0.999,-90.00,180.00,-22.50,CLOSED,0
671179.681,0,0,0,1.000,1.000,0.999,-90.00,180.00,-22.50,CLOSED,0
671179.685,0,0,0,1.000,1.000,0.999,-90.00,180.00,-22.50,CLOSED,0
671179.690,0,0,0,1.000,1.000,0.999,-90.00,180.00,-22.50,CLOSED,0
671179.694,0,0,0,1.000,1.000,0.999,-90.00,180.00,-22.50,CLOSED,0
671179.698,0,0,0,1.000,1.000,0.998,-90.00,180.00,-22.50,CLOSED,0
671179.703,0,0,0,1.000,1.000,0.997,-90.00,180.00,-22.50,CLOSED,0
671179.708,0,0,0,1.000,1.000,0.994,-90.00,180.00,-22.50,CLOSED,0
671179.717,0,0,0,1.000,0.999,0.988,-90.00,180.00,-22.50,CLOSED,0
671179.721,0,0,0,1.000,0.999,0.982,-90.00,180.00,-22.50,CLOSED,0
671179.725,0,0,0,1.000,0.998,0.985,-90.00,180.00,-22.50,CLOSED,0
671179.730,0,0,0,1.000,0.997,0.991,-90.00,180.00,-22.50,CLOSED,0
671179.733,0,0,0,1.000,0.997,0.995,-90.00,180.00,-22.50,CLOSED,0
671179.740,0,0,0,1.000,0.996,0.997,-90.00,180.00,-22.50,CLOSED,0
671179.744,0,0,0,1.000,0.995,0.998,-90.00,180.00,-22.50,CLOSED,0
671179.748,0,0,0,1.000,0.996,0.999,-90.00,180.00,-22.50,CLOSED,0
671179.751,0,0,0,1.000,0.997,0.998,-90.00,180.00,-22.50,CLOSED,0
671179.755,0,0,0,1.000,0.997,0.998,-90.00,180.00,-22.50,CLOSED,0
671179.759,0,0,0,1.000,0.998,0.997,-90.00,180.00,-22.50,CLOSED,0
671179.763,0,0,0,1.000,0.998,0.994,-90.00,180.00,-22.50,CLOSED,0
671179.767,0,0,0,1.000,0.999,0.988,-90.00,180.00,-22.50,CLOSED,0
671179.773,0,0,0,1.000,0.999,0.979,-90.00,180.00,-22.50,CLOSED,0
671179.777,0,0,0,1.000,0.999,0.976,-90.00,180.00,-22.50,CLOSED,0
671179.781,0,0,0,1.000,0.999,0.981,-90.00,180.00,-22.50,CLOSED,0
671179.785,0,0,0,1.000,0.999,0.984,-90.00,180.00,-22.50,CLOSED,0
671179.793,0,0,0,1.000,0.998,0.988,-90.00,180.00,-22.50,CLOSED,0
671179.797,0,0,0,1.000,0.998,0.993,-90.00,180.00,-22.50,CLOSED,0
671179.801,0,0,0,1.000,0.998,0.995,-90.00,180.00,-22.50,CLOSED,0
671179.809,0,0,0,1.000,0.998,0.997,-90.00,180.00,-22.50,CLOSED,0
671179.812,0,0,0,1.000,0.999,0.998,-90.00,180.00,-22.50,CLOSED,0
671179.816,0,0,0,1.000,0.999,0.998,-90.00,180.00,-22.50,CLOSED,0
671179.821,0,0,0,1.000,0.999,0.999,-90.00,180.00,-22.50,CLOSED,0
671179.825,0,0,0,1.000,0.999,0.999,-90.00,180.00,-22.50,CLOSED,0
671179.831,0,0,0,1.000,1.000,0.999,-90.00,180.00,-22.50,CLOSED,0
671179.836,0,0,0,1.000,1.000,0.998,-90.00,180.00,-22.50,CLOSED,0
671179.840,0,0,0,1.000,1.000,0.998,-90.00,180.00,-22.50,CLOSED,0
671179.844,0,0,0,1.000,1.000,0.998,-90.00,180.00,-22.50,CLOSED,0
671179.848,0,0,0,1.000,1.000,0.999,-90.00,180.00,-22.50,CLOSED,0
671179.852,0,0,0,1.000,1.000,0.999,-90.00,180.00,-22.50,CLOSED,0
671179.857,0,0,0,1.000,1.000,1.000,-90.00,180.00,-22.50,CLOSED,0
671179.861,0,0,0,1.000,1.000,1.000,-90.00,180.00,-22.50,CLOSED,0
671179.866,0,0,0,1.000,1.000,1.000,-90.00,180.00,-22.50,CLOSED,0
671179.870,0,0,0,1.000,1.000,1.000,-90.00,180.00,-22.50,CLOSED,0
671179.874,0,0,0,1.000,1.000,1.000,-90.00,180.00,-22.50,CLOSED,0
671179.878,0,0,0,1.000,1.000,1.000,-90.00,180.00,-22.50,CLOSED,0
671179.882,0,0,0,1.000,1.000,1.000,-90.00,180.00,-22.50,CLOSED,0
671179.886,0,0,0,1.000,1.000,1.000,-90.00,180.00,-22.50,CLOSED,0
671179.890,0,0,0,1.000,1.000,1.000,-90.00,180.00,-22.50,CLOSED,0
671179.895,0,0,0,1.000,1.000,1.000,-90.00,180.00,-22.50,CLOSED,0
671179.899,0,0,0,1.000,1.000,0.999,-90.00,180.00,-22.50,CLOSED,0
671179.905,0,0,0,1.000,1.000,0.999,-90.00,180.00,-22.50,CLOSED,0
671179.912,0,0,0,1.000,1.000,0.999,-90.00,180.00,-22.50,CLOSED,0
671179.919,0,0,0,1.000,1.000,0.999,-90.00,180.00,-22.50,CLOSED,0
671179.926,0,0,0,1.000,1.000,0.999,-90.00,180.00,-22.50,CLOSED,0
671179.933,0,0,0,1.000,1.000,0.999,-90.00,180.00,-22.50,CLOSED,0
671179.944,0,0,0,1.000,1.000,0.999,-90.00,180.00,-22.50,CLOSED,0
671179.951,0,0,0,1.000,1.000,0.999,-90.00,180.00,-22.50,CLOSED,0
671179.955,0,0,0,1.000,1.000,0.999,-90.00,180.00,-22.50,CLOSED,0
671179.960,0,0,0,1.000,1.000,0.999,-90.00,180.00,-22.50,CLOSED,0
671179.969,0,0,0,1.000,1.000,0.998,-90.00,180.00,-22.50,CLOSED,0
671179.976,0,0,0,1.000,1.000,0.996,-90.00,180.00,-22.50,CLOSED,0
671179.980,0,0,0,1.000,0.999,0.992,-90.00,180.00,-22.50,CLOSED,0
671179.985,0,0,0,1.000,0.998,0.985,-90.00,180.00,-22.50,CLOSED,0
671179.989,0,0,0,1.000,0.988,0.978,-90.00,180.00,-22.50,CLOSED,0
671179.993,0,0,0,1.000,0.924,0.974,-90.00,180.00,-22.50,CLOSED,0
671179.999,0,0,0,1.000,0.623,0.976,-90.00,180.00,-22.50,CLOSED,0
671180.003,0,0,0,1.000,0.959,0.989,-90.00,180.00,-22.50,CLOSED,0
671180.007,0,0,0,1.000,0.995,0.995,-90.00,180.00,-22.50,CLOSED,0
671180.010,0,0,0,1.000,0.999,0.996,-90.00,180.00,-22.50,CLOSED,0
671180.014,0,0,0,1.000,1.000,0.998,-90.00,180.00,-22.50,CLOSED,0
671180.019,0,0,0,1.000,1.000,0.998,-90.00,180.00,-22.50,CLOSED,0
671180.023,0,0,0,1.000,1.000,0.999,-90.00,180.00,-22.50,CLOSED,0
671180.026,0,0,0,1.000,1.000,0.999,-90.00,180.00,-22.50,CLOSED,0
671180.030,0,0,0,1.000,1.000,0.999,-90.00,180.00,-22.50,CLOSED,0
671180.033,0,0,0,1.000,0.999,1.000,-90.00,180.00,-22.50,CLOSED,0
671180.045,0,0,0,1.000,0.999,1.000,-90.00,180.00,-22.50,CLOSED,0
671180.049,0,0,0,1.000,0.998,1.000,-90.00,180.00,-22.50,CLOSED,0
671180.054,0,0,0,1.000,0.996,1.000,-90.00,180.00,-22.50,CLOSED,0
671180.059,0,0,0,0.999,0.994,1.000,-90.00,180.00,-22.50,CLOSED,0
671180.069,0,0,0,0.999,0.986,1.000,-90.00,180.00,-22.50,CLOSED,0
671180.078,0,0,0,0.999,0.981,1.000,-90.00,180.00,-22.50,CLOSED,0
671180.089,0,0,0,0.999,0.985,1.000,-90.00,180.00,-22.50,CLOSED,0
671180.096,0,0,0,0.999,0.996,1.000,-90.00,180.00,-22.50,CLOSED,0
671180.106,0,0,0,0.997,0.996,1.000,-90.00,180.00,-22.50,CLOSED,0
671180.115,0,0,0,0.997,1.000,1.000,-90.00,180.00,-22.50,CLOSED,0
671180.121,0,0,0,0.994,1.000,1.000,-90.00,180.00,-22.50,CLOSED,0
671180.125,0,0,0,0.998,1.000,1.000,-90.00,180.00,-22.50,CLOSED,0
671180.129,0,0,0,0.999,1.000,1.000,-90.00,180.00,-22.50,CLOSED,0
671180.134,0,0,0,1.000,1.000,1.000,-90.00,180.00,-22.50,CLOSED,0
671180.140,0,0,0,1.000,1.000,1.000,-90.00,180.00,-22.50,CLOSED,0
671180.148,0,0,0,1.000,1.000,1.000,-90.00,180.00,-22.50,CLOSED,0
671180.154,0,0,0,1.000,1.000,1.000,-90.00,180.00,-22.50,CLOSED,0
671180.158,0,0,0,0.999,1.000,1.000,-90.00,180.00,-22.50,CLOSED,0
671180.163,0,0,0,1.000,1.000,1.000,-90.00,180.00,-22.50,CLOSED,0
671180.167,0,0,0,1.000,1.000,1.000,-90.00,180.00,-22.50,CLOSED,0
671180.174,0,0,0,1.000,1.000,1.000,-90.00,180.00,-22.50,CLOSED,0
671180.182,0,0,0,1.000,1.000,1.000,-90.00,180.00,-22.50,CLOSED,0
671180.186,0,0,0,1.000,1.000,1.000,-90.00,180.00,-22.50,CLOSED,0
671180.191,0,0,0,1.000,1.000,1.000,-90.00,180.00,-22.50,CLOSED,0
671180.195,0,0,0,1.000,1.000,1.000,-90.00,180.00,-22.50,CLOSED,0
671180.199,0,0,0,1.000,1.000,1.000,-90.00,180.00,-22.50,CLOSED,0
671180.206,0,0,0,1.000,1.000,1.000,-90.00,180.00,-22.50,CLOSED,0
671180.212,0,0,0,1.000,1.000,1.000,-90.00,180.00,-22.50,CLOSED,0
671180.216,0,0,0,1.000,1.000,1.000,-90.00,180.00,-22.50,CLOSED,0
671180.224,0,0,0,1.000,1.000,1.000,-90.00,180.00,-22.50,CLOSED,0
671180.228,0,0,0,1.000,1.000,1.000,-90.00,180.00,-22.50,CLOSED,0
671180.232,0,0,0,1.000,1.000,1.000,-90.00,180.00,-22.50,CLOSED,0
671180.237,0,0,0,1.000,1.000,1.000,-90.00,180.00,-22.50,CLOSED,0
671180.241,0,0,0,1.000,1.000,1.000,-90.00,180.00,-22.50,CLOSED,0
671180.248,0,0,0,1.000,1.000,1.000,-90.00,180.00,-22.50,CLOSED,0
671180.253,0,0,0,1.000,1.000,1.000,-90.00,180.00,-22.50,CLOSED,0
671180.257,0,0,0,1.000,1.000,1.000,-90.00,180.00,-22.50,CLOSED,0
671180.265,0,0,0,1.000,1.000,1.000,-90.00,180.00,-22.50,CLOSED,0
671180.283,0,0,0,1.000,1.000,1.000,-90.00,180.00,-22.50,CLOSED,0
671180.297,0,0,0,1.000,1.000,1.000,-90.00,180.00,-22.50,CLOSED,0
671180.311,0,0,0,1.000,1.000,1.000,-90.00,180.00,-22.50,CLOSED,0
671180.323,0,0,0,1.000,1.000,1.000,-90.00,180.00,-22.50,CLOSED,0
671180.338,0,0,0,1.000,1.000,1.000,-90.00,180.00,-22.50,CLOSED,0
671180.346,0,0,0,1.000,1.000,1.000,-90.00,180.00,-22.50,CLOSED,0
671180.354,0,0,0,1.000,1.000,1.000,-90.00,180.00,-22.50,CLOSED,0
671180.363,0,0,0,1.000,1.000,1.000,-90.00,180.00,-22.50,CLOSED,0
671180.373,0,0,0,1.000,1.000,1.000,-90.00,180.00,-22.50,CLOSED,0
671180.381,0,0,0,1.000,1.000,1.000,-90.00,180.00,-22.50,CLOSED,0
671180.389,0,0,0,1.000,1.000,1.000,-90.00,180.00,-22.50,CLOSED,0
671180.397,0,0,0,1.000,1.000,1.000,-90.00,180.00,-22.50,CLOSED,0
671180.405,0,0,0,1.000,1.000,1.000,-90.00,180.00,-22.50,CLOSED,0
671180.413,0,0,0,1.000,1.000,1.000,-90.00,180.00,-22.50,CLOSED,0
671180.421,0,0,0,1.000,1.000,1.000,-90.00,180.00,-22.50,CLOSED,0
671180.429,0,0,0,1.000,1.000,1.000,-90.00,180.00,-22.50,CLOSED,0
671180.437,0,0,0,1.000,1.000,1.000,-90.00,180.00,-22.50,CLOSED,0
671180.445,0,0,0,1.000,1.000,1.000,-90.00,180.00,-22.50,CLOSED,0
671180.451,0,0,0,1.000,1.000,1.000,-90.00,180.00,-22.50,CLOSED,0
671180.455,0,0,0,1.000,1.000,1.000,-90.00,180.00,-22.50,CLOSED,0
671180.459,0,0,0,1.000,1.000,1.000,-90.00,180.00,-22.50,CLOSED,0
671180.463,0,0,0,1.000,1.000,1.000,-90.00,180.00,-22.50,CLOSED,0
671180.467,0,0,0,1.000,1.000,1.000,-90.00,180.00,-22.50,CLOSED,0
671180.471,0,0,0,1.000,1.000,1.000,-90.00,180.00,-22.50,CLOSED,0
671180.478,0,0,0,1.000,1.000,1.000,-90.00,180.00,-22.50,CLOSED,0
671180.483,0,0,0,1.000,1.000,1.000,-90.00,180.00,-22.50,CLOSED,0
671180.487,0,0,0,1.000,1.000,1.000,-90.00,180.00,-22.50,CLOSED,0
671180.491,0,0,0,1.000,1.000,1.000,-90.00,180.00,-22.50,CLOSED,0
671180.495,0,0,0,1.000,1.000,1.000,-90.00,180.00,-22.50,CLOSED,0
671180.499,0,0,0,1.000,1.000,1.000,-90.00,180.00,-22.50,CLOSED,0
671180.507,0,0,0,1.000,1.000,1.000,-90.00,180.00,-22.50,CLOSED,0
671180.512,0,0,0,1.000,1.000,1.000,-90.00,180.00,-22.50,CLOSED,0
671180.516,0,0,0,1.000,1.000,1.000,-90.00,180.00,-22.50,CLOSED,0
671180.523,0,0,0,1.000,1.000,1.000,-90.00,180.00,-22.50,CLOSED,0
671180.528,0,0,0,1.000,1.000,1.000,-90.00,180.00,-22.50,CLOSED,0
671180.532,0,0,0,1.000,1.000,1.000,-90.00,180.00,-22.50,CLOSED,0
671180.536,0,0,0,1.000,1.000,1.000,-90.00,180.00,-22.50,CLOSED,0
671180.540,0,0,0,1.000,1.000,1.000,-90.00,180.00,-22.50,CLOSED,0
671180.548,0,0,0,1.000,1.000,1.000,-90.00,180.00,-22.50,CLOSED,0
671180.553,0,0,0,1.000,1.000,1.000,-90.00,180.00,-22.50,CLOSED,0
671180.559,0,0,0,1.000,1.000,1.000,-90.00,180.00,-22.50,CLOSED,0
671180.567,0,0,0,1.000,1.000,1.000,-90.00,180.00,-22.50,CLOSED,0
671180.574,0,0,0,1.000,1.000,1.000,-90.00,180.00,-22.50,CLOSED,0
671180.577,0,0,0,1.000,1.000,1.000,-90.00,180.00,-22.50,CLOSED,0
671180.581,0,0,0,1.000,1.000,1.000,-90.00,180.00,-22.50,CLOSED,0
671180.586,0,0,0,1.000,1.000,1.000,-90.00,180.00,-22.50,CLOSED,0
671180.590,0,0,0,1.000,1.000,1.000,-90.00,180.00,-22.50,CLOSED,0
671180.593,0,0,0,1.000,1.000,1.000,-90.00,180.00,-22.50,CLOSED,0
671180.597,0,0,0,1.000,1.000,1.000,-90.00,180.00,-22.50,CLOSED,0
671180.602,0,0,0,1.000,1.000,1.000,-90.00,180.00,-22.50,CLOSED,0
671180.605,0,0,0,1.000,1.000,1.000,-90.00,180.00,-22.50,CLOSED,0
671180.610,0,0,0,1.000,1.000,1.000,-90.00,180.00,-22.50,CLOSED,0
671180.614,0,0,0,1.000,1.000,1.000,-90.00,180.00,-22.50,CLOSED,0
671180.618,0,0,0,1.000,1.000,1.000,-90.00,180.00,-22.50,CLOSED,0
671180.624,0,0,0,1.000,1.000,1.000,-90.00,180.00,-22.50,CLOSED,0
671180.631,0,0,0,1.000,1.000,1.000,-90.00,180.00,-22.50,CLOSED,0
671180.635,0,0,0,1.000,1.000,1.000,-90.00,180.00,-22.50,CLOSED,0
671180.639,0,0,0,1.000,1.000,1.000,-90.00,180.00,-22.50,CLOSED,0
671180.643,0,0,0,1.000,1.000,1.000,-90.00,180.00,-22.50,CLOSED,0
671180.647,0,0,0,1.000,1.000,1.000,-90.00,180.00,-22.50,CLOSED,0
671180.652,0,0,0,1.000,1.000,1.000,-90.00,180.00,-22.50,CLOSED,0
671180.655,0,0,0,1.000,1.000,1.000,-90.00,180.00,-22.50,CLOSED,0
671180.659,0,0,0,1.000,1.000,1.000,-90.00,180.00,-22.50,CLOSED,0
671180.663,0,0,0,1.000,1.000,1.000,-90.00,180.00,-22.50,CLOSED,0
671180.668,0,0,0,1.000,1.000,1.000,-90.00,180.00,-22.50,CLOSED,0
671180.672,0,0,0,1.000,1.000,1.000,-90.00,180.00,-22.50,CLOSED,0
671180.676,0,0,0,1.000,1.000,1.000,-90.00,180.00,-22.50,CLOSED,0
671180.680,0,0,0,1.000,1.000,1.000,-90.00,180.00,-22.50,CLOSED,0
671180.684,0,0,0,1.000,1.000,1.000,-90.00,180.00,-22.50,CLOSED,0
671180.692,0,0,0,1.000,1.000,1.000,-90.00,180.00,-22.50,CLOSED,0
671180.697,0,0,0,1.000,1.000,1.000,-90.00,180.00,-22.50,CLOSED,0
671180.701,0,0,0,1.000,1.000,1.000,-90.00,180.00,-22.50,CLOSED,0
671180.706,0,0,0,1.000,1.000,1.000,-90.00,180.00,-22.50,CLOSED,0
671180.710,0,0,0,1.000,1.000,1.000,-90.00,180.00,-22.50,CLOSED,0
671180.714,0,0,0,1.000,1.000,1.000,-90.00,180.00,-22.50,CLOSED,0
671180.719,0,0,0,1.000,1.000,1.000,-90.00,180.00,-22.50,CLOSED,0
671180.723,0,0,0,1.000,1.000,1.000,-90.00,180.00,-22.50,CLOSED,0
671180.727,0,0,0,1.000,1.000,1.000,-90.00,180.00,-22.50,CLOSED,0
671180.731,0,0,0,1.000,1.000,1.000,-90.00,180.00,-22.50,CLOSED,0
671180.735,0,0,0,1.000,1.000,1.000,-90.00,180.00,-22.50,CLOSED,0
671180.739,0,0,0,1.000,1.000,1.000,-90.00,180.00,-22.50,CLOSED,0
671180.743,0,0,0,1.000,1.000,1.000,-90.00,180.00,-22.50,CLOSED,0
671180.751,0,0,0,1.000,1.000,1.000,-90.00,180.00,-22.50,CLOSED,0
671180.755,0,0,0,1.000,1.000,1.000,-90.00,180.00,-22.50,CLOSED,0
671180.758,0,0,0,1.000,1.000,1.000,-90.00,180.00,-22.50,CLOSED,0
671180.762,0,0,0,1.000,1.000,1.000,-90.00,180.00,-22.50,CLOSED,0
671180.766,0,0,0,1.000,1.000,1.000,-90.00,180.00,-22.50,CLOSED,0
671180.770,0,0,0,1.000,1.000,1.000,-90.00,180.00,-22.50,CLOSED,0
671180.774,0,0,0,1.000,1.000,1.000,-90.00,180.00,-22.50,CLOSED,0
671180.778,0,0,0,1.000,1.000,1.000,-90.00,180.00,-22.50,CLOSED,0
671180.782,0,0,0,1.000,1.000,1.000,-90.00,180.00,-22.50,CLOSED,0
671180.786,0,0,0,1.000,1.000,1.000,-90.00,180.00,-22.50,CLOSED,0
671180.791,0,0,0,1.000,1.000,1.000,-90.00,180.00,-22.50,CLOSED,0
671180.797,0,0,0,1.000,1.000,1.000,-90.00,180.00,-22.50,CLOSED,0
671180.802,0,0,0,1.000,1.000,1.000,-90.00,180.00,-22.50,CLOSED,0
671180.806,0,0,0,1.000,1.000,1.000,-90.00,180.00,-22.50,CLOSED,0
671180.811,0,0,0,1.000,1.000,1.000,-90.00,180.00,-22.50,CLOSED,0
671180.815,0,0,0,1.000,1.000,1.000,-90.00,180.00,-22.50,CLOSED,0
671180.819,0,0,0,1.000,1.000,1.000,-90.00,180.00,-22.50,CLOSED,0
671180.823,0,0,0,0.999,1.000,1.000,-90.00,180.00,-22.50,CLOSED,0
671180.828,0,0,0,0.858,1.000,1.000,-90.00,180.00,-22.50,CLOSED,0
671180.832,0,0,0,0.484,1.000,1.000,-90.00,180.00,-22.50,CLOSED,0
671180.840,0,0,0,0.481,1.000,1.000,-90.00,180.00,-22.50,CLOSED,0
671180.845,0,0,0,0.604,1.000,1.000,-90.00,180.00,-22.50,CLOSED,0
671180.849,0,0,0,0.670,1.000,1.000,-90.00,180.00,-22.50,CLOSED,0
671180.853,0,0,0,0.776,1.000,1.000,-90.00,180.00,-22.50,CLOSED,0
671180.857,0,0,0,0.937,1.000,1.000,-90.00,180.00,-22.50,CLOSED,0
671180.861,0,0,0,0.997,1.000,1.000,-90.00,180.00,-22.50,CLOSED,0
671180.865,0,0,0,1.000,1.000,1.000,-90.00,180.00,-22.50,CLOSED,0
671180.870,0,0,0,1.000,1.000,1.000,-90.00,180.00,-22.50,CLOSED,0
671180.874,0,0,0,1.000,1.000,1.000,-90.00,180.00,-22.50,CLOSED,0
671180.878,3,0,0,1.000,1.000,1.000,-90.00,180.00,-22.50,OPEN,0
671180.883,3,0,0,1.000,1.000,1.000,-90.00,180.00,-22.50,OPEN,0
671180.892,3,0,0,1.000,1.000,1.000,-90.00,180.00,-22.50,OPEN,0
671180.897,3,0,0,1.000,1.000,1.000,-90.00,180.00,-22.50,OPEN,0
671180.901,3,0,0,1.000,1.000,1.000,-90.00,180.00,-22.50,OPEN,0
671180.907,3,0,0,1.000,1.000,1.000,-90.00,180.00,-22.50,OPEN,0
671180.915,3,0,0,1.000,1.000,1.000,-90.00,180.00,-22.50,OPEN,0
671180.922,3,0,0,1.000,1.000,1.000,-90.00,180.00,-22.50,OPEN,0
671180.929,3,0,0,1.000,1.000,1.000,-90.00,180.00,-22.50,OPEN,0
671180.936,3,0,0,1.000,1.000,1.000,-90.00,180.00,-22.50,OPEN,0
671180.940,3,0,0,1.000,1.000,1.000,-90.00,180.00,-22.50,OPEN,0
671180.944,3,0,0,1.000,1.000,1.000,-90.00,180.00,-22.50,OPEN,0
671180.948,3,0,0,1.000,1.000,1.000,-90.00,180.00,-22.50,OPEN,0
671180.954,3,0,0,1.000,1.000,1.000,-90.00,180.00,-22.50,OPEN,0
671180.958,3,0,0,1.000,1.000,1.000,-90.00,180.00,-22.50,OPEN,0
671180.962,3,0,0,1.000,1.000,1.000,-90.00,180.00,-22.50,OPEN,0
671180.969,3,0,0,1.000,1.000,1.000,-90.00,180.00,-22.50,OPEN,0
671180.978,3,0,0,1.000,1.000,1.000,-90.00,180.00,-22.50,OPEN,0
671180.985,3,0,0,1.000,1.000,1.000,-90.00,180.00,-22.50,OPEN,0
671180.989,3,0,0,1.000,1.000,1.000,-90.00,180.00,-22.50,OPEN,0
671180.993,3,0,0,1.000,1.000,1.000,-90.00,180.00,-22.50,OPEN,0
671180.997,3,0,0,1.000,1.000,1.000,-90.00,180.00,-22.50,OPEN,0
671181.001,3,0,0,1.000,1.000,1.000,-90.00,180.00,-22.50,OPEN,0
671181.004,3,0,0,1.000,1.000,1.000,-90.00,180.00,-22.50,OPEN,0
671181.008,3,0,0,1.000,1.000,1.000,-90.00,180.00,-22.50,OPEN,0
671181.012,3,0,0,1.000,1.000,1.000,-90.00,180.00,-22.50,OPEN,0
671181.022,3,0,0,1.000,1.000,1.000,-90.00,180.00,-22.50,OPEN,0
671181.026,3,0,0,1.000,1.000,1.000,-90.00,180.00,-22.50,OPEN,0
671181.030,3,0,0,1.000,1.000,1.000,-90.00,180.00,-22.50,OPEN,0
671181.035,3,0,0,1.000,1.000,1.000,-90.00,180.00,-22.50,OPEN,0
671181.038,3,0,0,1.000,1.000,1.000,-90.00,180.00,-22.50,OPEN,0
671181.042,3,0,0,1.000,1.000,1.000,-90.00,180.00,-22.50,OPEN,0
671181.047,3,0,0,1.000,1.000,1.000,-90.00,180.00,-22.50,OPEN,0
671181.051,3,0,0,1.000,1.000,1.000,-90.00,180.00,-22.50,OPEN,0
671181.056,3,0,0,1.000,1.000,1.000,-90.00,180.00,-22.50,OPEN,0
671181.060,3,0,0,1.000,1.000,1.000,-90.00,180.00,-22.50,OPEN,0
671181.066,3,0,0,1.000,1.000,1.000,-90.00,180.00,-22.50,OPEN,0
671181.072,3,0,0,1.000,1.000,1.000,-90.00,180.00,-22.50,OPEN,0
671181.077,3,0,0,1.000,1.000,1.000,-90.00,180.00,-22.50,OPEN,0
671181.082,3,0,0,1.000,1.000,1.000,-90.00,180.00,-22.50,OPEN,0
671181.090,3,0,0,1.000,1.000,1.000,-90.00,180.00,-22.50,OPEN,0
671181.095,3,0,0,1.000,1.000,1.000,-90.00,180.00,-22.50,OPEN,0
671181.099,3,0,0,1.000,1.000,1.000,-90.00,180.00,-22.50,OPEN,0
671181.105,3,0,0,1.000,1.000,1.000,-90.00,180.00,-22.50,OPEN,0
671181.111,3,0,0,1.000,1.000,1.000,-90.00,180.00,-22.50,OPEN,0
671181.114,3,0,0,1.000,1.000,1.000,-90.00,180.00,-22.50,OPEN,0
671181.120,3,0,0,1.000,1.000,1.000,-90.00,180.00,-22.50,OPEN,0
671181.124,3,0,0,1.000,1.000,1.000,-90.00,180.00,-22.50,OPEN,0
671181.127,3,0,0,1.000,1.000,1.000,-90.00,180.00,-22.50,OPEN,0
671181.131,3,0,0,1.000,1.000,1.000,-90.00,180.00,-22.50,OPEN,0
671181.135,3,0,0,1.000,1.000,1.000,-90.00,180.00,-22.50,OPEN,0
671181.140,3,0,0,1.000,1.000,1.000,-90.00,180.00,-22.50,OPEN,0
671181.143,3,0,0,1.000,1.000,1.000,-90.00,180.00,-22.50,OPEN,0
671181.148,3,0,0,1.000,1.000,1.000,-90.00,180.00,-22.50,OPEN,0
671181.152,3,0,0,1.000,1.000,1.000,-90.00,180.00,-22.50,OPEN,0
671181.156,3,0,0,1.000,1.000,1.000,-90.00,180.00,-22.50,OPEN,0
671181.160,3,0,0,1.000,1.000,1.000,-90.00,180.00,-22.50,OPEN,0
671181.164,3,0,0,1.000,1.000,1.000,-90.00,180.00,-22.50,OPEN,0
671181.169,3,0,0,1.000,1.000,1.000,-90.00,180.00,-22.50,OPEN,0
671181.173,3,0,0,1.000,1.000,1.000,-90.00,180.00,-22.50,OPEN,0
671181.177,3,0,0,1.000,1.000,1.000,-90.00,180.00,-22.50,OPEN,0
671181.181,3,0,0,1.000,1.000,1.000,-90.00,180.00,-22.50,OPEN,0
671181.185,3,0,0,1.000,1.000,1.000,-90.00,180.00,-22.50,OPEN,0
671181.190,3,0,0,1.000,1.000,1.000,-90.00,180.00,-22.50,OPEN,0
671181.195,3,0,0,1.000,1.000,1.000,-90.00,180.00,-22.50,OPEN,0
671181.199,3,0,0,1.000,1.000,1.000,-90.00,180.00,-22.50,OPEN,0
671181.204,3,0,0,1.000,1.000,1.000,-90.00,180.00,-22.50,OPEN,0
671181.208,3,0,0,1.000,1.000,1.000,-90.00,180.00,-22.50,OPEN,0
671181.211,3,0,0,1.000,1.000,1.000,-90.00,180.00,-22.50,OPEN,0
671181.216,3,0,0,1.000,1.000,1.000,-90.00,180.00,-22.50,OPEN,0
671181.222,3,0,0,1.000,1.000,1.000,-90.00,180.00,-22.50,OPEN,0
671181.226,3,0,0,1.000,1.000,1.000,-90.00,180.00,-22.50,OPEN,0
671181.230,3,0,0,1.000,1.000,1.000,-90.00,180.00,-22.50,OPEN,0
671181.235,3,0,0,1.000,1.000,1.000,-90.00,180.00,-22.50,OPEN,0
671181.239,3,0,0,1.000,1.000,1.000,-90.00,180.00,-22.50,OPEN,0
671181.243,3,0,0,1.000,1.000,1.000,-90.00,180.00,-22.50,OPEN,0
671181.247,3,0,0,1.000,1.000,1.000,-90.00,180.00,-22.50,OPEN,0
671181.251,3,0,0,1.000,1.000,1.000,-90.00,180.00,-22.50,OPEN,0
671181.255,3,0,0,1.000,1.000,1.000,-90.00,180.00,-22.50,OPEN,0
671181.260,3,0,0,1.000,1.000,1.000,-90.00,180.00,-22.50,OPEN,0
671181.268,3,0,0,1.000,1.000,1.000,-90.00,180.00,-22.50,OPEN,0
671181.275,3,0,0,1.000,1.000,1.000,-90.00,180.00,-22.50,OPEN,0
671181.281,3,0,0,1.000,1.000,1.000,-90.00,180.00,-22.50,OPEN,0
671181.291,3,0,0,1.000,1.000,1.000,-90.00,180.00,-22.50,OPEN,0
671181.298,3,0,0,1.000,1.000,1.000,-90.00,180.00,-22.50,OPEN,0
671181.303,3,0,0,1.000,1.000,1.000,-90.00,180.00,-22.50,OPEN,0
671181.308,3,0,0,1.000,1.000,1.000,-90.00,180.00,-22.50,OPEN,0
671181.312,3,0,0,1.000,1.000,1.000,-90.00,180.00,-22.50,OPEN,0
671181.319,3,0,0,1.000,1.000,1.000,-90.00,180.00,-22.50,OPEN,0
671181.323,3,0,0,1.000,1.000,1.000,-90.00,180.00,-22.50,OPEN,0
671181.328,3,0,0,1.000,1.000,1.000,-90.00,180.00,-22.50,OPEN,0
671181.335,3,0,0,1.000,1.000,1.000,-90.00,180.00,-22.50,OPEN,0
671181.338,3,0,0,1.000,1.000,1.000,-90.00,180.00,-22.50,OPEN,0
671181.343,3,0,0,1.000,1.000,1.000,-90.00,180.00,-22.50,OPEN,0
671181.347,3,0,0,1.000,1.000,1.000,-90.00,180.00,-22.50,OPEN,0
671181.352,3,0,0,1.000,1.000,1.000,-90.00,180.00,-22.50,OPEN,0
671181.357,3,0,0,1.000,1.000,1.000,-90.00,180.00,-22.50,OPEN,0
671181.367,3,0,0,1.000,1.000,1.000,-90.00,180.00,-22.50,OPEN,0
671181.372,3,0,0,1.000,1.000,1.000,-90.00,180.00,-22.50,OPEN,0
671181.375,3,0,0,1.000,1.000,1.000,-90.00,180.00,-22.50,OPEN,0
671181.380,3,0,0,1.000,1.000,1.000,-90.00,180.00,-22.50,OPEN,0
671181.384,3,0,0,1.000,1.000,1.000,-90.00,180.00,-22.50,OPEN,0
671181.388,3,0,0,1.000,1.000,1.000,-90.00,180.00,-22.50,OPEN,0
671181.392,3,0,0,1.000,1.000,1.000,-90.00,180.00,-22.50,OPEN,0
671181.396,3,0,0,1.000,1.000,1.000,-90.00,180.00,-22.50,OPEN,0
671181.400,3,0,0,1.000,1.000,1.000,-90.00,180.00,-22.50,OPEN,0
671181.404,3,0,0,1.000,1.000,1.000,-90.00,180.00,-22.50,OPEN,0
671181.409,3,0,0,0.999,1.000,1.000,-90.00,180.00,-22.50,OPEN,0
671181.412,3,0,0,0.975,1.000,1.000,-90.00,180.00,-22.50,OPEN,0
671181.416,3,0,0,0.869,1.000,1.000,-90.00,180.00,-22.50,OPEN,0
671181.427,3,0,0,0.666,1.000,1.000,-90.00,180.00,-22.50,OPEN,0
671181.435,3,0,0,0.511,1.000,1.000,-90.00,180.00,-22.50,OPEN,0
671181.441,3,0,0,0.589,1.000,1.000,-90.00,180.00,-22.50,OPEN,0
671181.449,3,0,0,0.639,1.000,1.000,-90.00,180.00,-22.50,OPEN,0
671181.458,3,0,0,0.562,1.000,1.000,-90.00,180.00,-22.50,OPEN,0
671181.466,3,0,0,0.920,1.000,1.000,-90.00,180.00,-22.50,OPEN,0
671181.471,3,0,0,1.000,1.000,1.000,-90.00,180.00,-22.50,OPEN,0
671181.479,3,0,0,1.000,1.000,1.000,-90.00,180.00,-22.50,OPEN,0
671181.486,3,0,0,1.000,1.000,1.000,-90.00,180.00,-22.50,OPEN,0
671181.490,3,0,0,1.000,1.000,1.000,-90.00,180.00,-22.50,OPEN,0
671181.494,3,0,0,1.000,1.000,1.000,-90.00,180.00,-22.50,OPEN,0
671181.498,3,0,0,1.000,1.000,1.000,-90.00,180.00,-22.50,OPEN,0
671181.508,0,0,0,1.000,1.000,1.000,-90.00,180.00,-22.50,OPEN,0
671181.512,0,0,0,1.000,1.000,1.000,-90.00,180.00,-22.50,OPEN,0
671181.519,0,0,0,1.000,1.000,1.000,-90.00,180.00,-22.50,OPEN,0
671181.527,0,0,0,1.000,1.000,1.000,-90.00,180.00,-22.50,OPEN,0
671181.536,0,0,0,1.000,1.000,1.000,-90.00,180.00,-22.50,OPEN,0
671181.540,0,0,0,1.000,1.000,1.000,-90.00,180.00,-22.50,OPEN,0
671181.543,0,0,0,1.000,1.000,1.000,-90.00,180.00,-22.50,OPEN,0
671181.548,0,0,0,1.000,1.000,1.000,-90.00,180.00,-22.50,OPEN,0
671181.554,0,0,0,1.000,1.000,1.000,-90.00,180.00,-22.50,OPEN,0
671181.560,0,0,0,1.000,1.000,1.000,-90.00,180.00,-22.50,OPEN,0
671181.564,0,0,0,1.000,1.000,1.000,-90.00,180.00,-22.50,OPEN,0
671181.568,0,0,0,1.000,1.000,1.000,-90.00,180.00,-22.50,OPEN,0
671181.572,0,0,0,1.000,1.000,1.000,-90.00,180.00,-22.50,OPEN,0
671181.576,0,0,0,1.000,1.000,1.000,-90.00,180.00,-22.50,OPEN,0
671181.584,0,0,0,1.000,1.000,1.000,-90.00,180.00,-22.50,OPEN,0
671181.593,0,0,0,1.000,1.000,1.000,-90.00,180.00,-22.50,OPEN,0
671181.600,0,0,0,1.000,1.000,1.000,-90.00,180.00,-22.50,OPEN,0
671181.605,0,0,0,1.000,1.000,1.000,-90.00,180.00,-22.50,OPEN,0
671181.609,0,0,0,1.000,1.000,1.000,-90.00,180.00,-22.50,OPEN,0
671181.612,0,0,0,1.000,1.000,1.000,-90.00,180.00,-22.50,OPEN,0
671181.616,0,0,0,0.999,1.000,1.000,-90.00,180.00,-22.50,OPEN,0
671181.621,0,0,0,1.000,1.000,1.000,-90.00,180.00,-22.50,OPEN,0
671181.624,0,0,0,1.000,1.000,1.000,-90.00,180.00,-22.50,OPEN,0
671181.628,0,0,0,1.000,1.000,1.000,-90.00,180.00,-22.50,OPEN,0
671181.632,0,0,0,1.000,1.000,1.000,-90.00,180.00,-22.50,OPEN,0
671181.636,0,0,0,1.000,1.000,1.000,-90.00,180.00,-22.50,OPEN,0
671181.640,0,0,0,1.000,1.000,1.000,-90.00,180.00,-22.50,OPEN,0
671181.643,0,0,0,1.000,1.000,1.000,-90.00,180.00,-22.50,OPEN,0
671181.647,0,0,0,1.000,1.000,1.000,-90.00,180.00,-22.50,OPEN,0
671181.651,0,0,0,1.000,1.000,1.000,-90.00,180.00,-22.50,OPEN,0
671181.656,0,0,0,1.000,1.000,1.000,-90.00,180.00,-22.50,OPEN,0
671181.660,0,0,0,1.000,1.000,1.000,-90.00,180.00,-22.50,OPEN,0
671181.664,0,0,0,1.000,1.000,1.000,-90.00,180.00,-22.50,OPEN,0
671181.669,0,0,0,1.000,1.000,1.000,-90.00,180.00,-22.50,OPEN,0
671181.673,0,0,0,1.000,1.000,1.000,-90.00,180.00,-22.50,OPEN,0
671181.677,0,0,0,1.000,1.000,1.000,-90.00,180.00,-22.50,OPEN,0
671181.681,0,0,0,1.000,1.000,1.000,-90.00,180.00,-22.50,OPEN,0
671181.686,0,0,0,1.000,1.000,1.000,-90.00,180.00,-22.50,OPEN,0
671181.694,0,0,0,1.000,1.000,1.000,-90.00,180.00,-22.50,OPEN,0
671181.698,0,0,0,1.000,1.000,1.000,-90.00,180.00,-22.50,OPEN,0
671181.702,0,0,0,1.000,1.000,1.000,-90.00,180.00,-22.50,OPEN,0
671181.706,0,0,0,1.000,1.000,1.000,-90.00,180.00,-22.50,OPEN,0
671181.710,0,0,0,1.000,1.000,1.000,-90.00,180.00,-22.50,OPEN,0
671181.714,0,0,0,1.000,1.000,1.000,-90.00,180.00,-22.50,OPEN,0
671181.719,0,0,0,1.000,1.000,1.000,-90.00,180.00,-22.50,OPEN,0
671181.723,0,0,0,1.000,1.000,1.000,-90.00,180.00,-22.50,OPEN,0
671181.727,0,0,0,1.000,1.000,1.000,-90.00,180.00,-22.50,OPEN,0
671181.731,0,0,0,1.000,1.000,1.000,-90.00,180.00,-22.50,OPEN,0
671181.737,0,0,0,1.000,1.000,1.000,-90.00,180.00,-22.50,OPEN,0
671181.740,0,0,0,1.000,1.000,1.000,-90.00,180.00,-22.50,OPEN,0
671181.744,0,0,0,1.000,1.000,1.000,-90.00,180.00,-22.50,OPEN,0
671181.749,0,0,0,1.000,1.000,1.000,-90.00,180.00,-22.50,OPEN,0
671181.753,0,0,0,1.000,1.000,1.000,-90.00,180.00,-22.50,OPEN,0
671181.759,0,0,0,1.000,1.000,1.000,-90.00,180.00,-22.50,OPEN,0
671181.763,0,0,0,1.000,1.000,1.000,-90.00,180.00,-22.50,OPEN,0
671181.772,0,0,0,1.000,1.000,1.000,-90.00,180.00,-22.50,OPEN,0
671181.776,0,0,0,1.000,1.000,1.000,-90.00,180.00,-22.50,OPEN,0
671181.780,0,0,0,1.000,1.000,1.000,-90.00,180.00,-22.50,OPEN,0
671181.787,0,0,0,1.000,1.000,1.000,-90.00,180.00,-22.50,OPEN,0
671181.791,0,0,0,1.000,1.000,1.000,-90.00,180.00,-22.50,OPEN,0
671181.795,0,0,0,1.000,1.000,1.000,-90.00,180.00,-22.50,OPEN,0
671181.799,0,0,0,1.000,1.000,1.000,-90.00,180.00,-22.50,OPEN,0
671181.803,0,0,0,1.000,1.000,1.000,-90.00,180.00,-22.50,OPEN,0
671181.810,0,0,0,1.000,1.000,1.000,-90.00,180.00,-22.50,OPEN,0
671181.818,0,0,0,1.000,1.000,1.000,-90.00,180.00,-22.50,OPEN,0
671181.828,0,0,0,1.000,1.000,1.000,-90.00,180.00,-22.50,OPEN,0
671181.834,0,0,0,1.000,1.000,1.000,-90.00,180.00,-22.50,OPEN,0
671181.839,0,0,0,1.000,1.000,1.000,-90.00,180.00,-22.50,OPEN,0
671181.844,0,0,0,1.000,1.000,1.000,-90.00,180.00,-22.50,OPEN,0
671181.848,0,0,0,1.000,1.000,1.000,-90.00,180.00,-22.50,OPEN,0
671181.852,0,0,0,1.000,1.000,1.000,-90.00,180.00,-22.50,OPEN,0
671181.856,0,0,0,1.000,1.000,1.000,-90.00,180.00,-22.50,OPEN,0
671181.861,0,0,0,1.000,1.000,1.000,-90.00,180.00,-22.50,OPEN,0
671181.865,0,0,0,1.000,1.000,1.000,-90.00,180.00,-22.50,OPEN,0
671181.874,0,0,0,1.000,1.000,1.000,-90.00,180.00,-22.50,OPEN,0
671181.883,0,0,0,1.000,1.000,1.000,-90.00,180.00,-22.50,OPEN,0
671181.887,0,0,0,1.000,1.000,1.000,-90.00,180.00,-22.50,OPEN,0
671181.891,0,0,0,1.000,1.000,1.000,-90.00,180.00,-22.50,OPEN,0
671181.895,0,0,0,1.000,1.000,1.000,-90.00,180.00,-22.50,OPEN,0
671181.899,0,0,0,1.000,1.000,1.000,-90.00,180.00,-22.50,OPEN,0
671181.903,0,0,0,1.000,1.000,1.000,-90.00,180.00,-22.50,OPEN,0
671181.907,0,0,0,1.000,1.000,1.000,-90.00,180.00,-22.50,OPEN,0
671181.911,0,0,0,1.000,1.000,1.000,-90.00,180.00,-22.50,OPEN,0
671181.914,0,0,0,1.000,1.000,1.000,-90.00,180.00,-22.50,OPEN,0
671181.919,0,0,0,1.000,1.000,1.000,-90.00,180.00,-22.50,OPEN,0
671181.923,0,0,0,1.000,1.000,1.000,-90.00,180.00,-22.50,OPEN,0
671181.927,0,0,0,1.000,1.000,1.000,-90.00,180.00,-22.50,OPEN,0
671181.931,0,0,0,1.000,1.000,1.000,-90.00,180.00,-22.50,OPEN,0
671181.937,0,0,0,1.000,1.000,1.000,-90.00,180.00,-22.50,OPEN,0
671181.942,0,0,0,1.000,1.000,1.000,-90.00,180.00,-22.50,OPEN,0
671181.946,0,0,0,1.000,1.000,1.000,-90.00,180.00,-22.50,OPEN,0
671181.950,0,0,0,1.000,1.000,1.000,-90.00,180.00,-22.50,OPEN,0
671181.954,0,0,0,1.000,1.000,1.000,-90.00,180.00,-22.50,OPEN,0
671181.958,0,0,0,1.000,1.000,1.000,-90.00,180.00,-22.50,OPEN,0
671181.963,0,0,0,1.000,1.000,1.000,-90.00,180.00,-22.50,OPEN,0
671181.967,0,0,0,1.000,1.000,1.000,-90.00,180.00,-22.50,OPEN,0
671181.975,0,0,0,1.000,1.000,1.000,-90.00,180.00,-22.50,OPEN,0
671181.983,0,0,0,1.000,1.000,1.000,-90.00,180.00,-22.50,OPEN,0
671181.987,0,0,0,1.000,1.000,1.000,-90.00,180.00,-22.50,OPEN,0
