t,hand,elbow,shoulder,p_hand,p_elbow,p_shoulder,J2,J3,J6,grip_state,cmd_sent
670982.759,0,0,0,0.981,1.000,0.999,-90.00,180.00,0.00,OPEN,0
670982.786,0,0,0,0.997,1.000,0.999,-90.00,180.00,0.00,OPEN,0
670982.795,0,0,0,1.000,1.000,0.998,-90.00,180.00,0.00,OPEN,0
670982.804,0,0,0,1.000,1.000,0.999,-90.00,180.00,0.00,OPEN,0
670982.815,0,0,0,1.000,1.000,0.999,-90.00,180.00,0.00,OPEN,0
670982.823,0,0,0,1.000,1.000,0.999,-90.00,180.00,0.00,OPEN,0
670982.832,0,0,0,1.000,1.000,0.999,-90.00,180.00,0.00,OPEN,0
670982.840,0,0,0,1.000,1.000,0.999,-90.00,180.00,0.00,OPEN,0
670982.845,0,0,0,1.000,1.000,0.999,-90.00,180.00,0.00,OPEN,0
670982.850,0,0,0,1.000,1.000,0.999,-90.00,180.00,0.00,OPEN,0
670982.855,0,0,0,1.000,1.000,0.999,-90.00,180.00,0.00,OPEN,0
670982.860,0,0,0,1.000,1.000,0.998,-90.00,180.00,0.00,OPEN,0
670982.864,0,0,0,1.000,1.000,0.998,-90.00,180.00,0.00,OPEN,0
670982.872,0,0,0,1.000,1.000,0.998,-90.00,180.00,0.00,OPEN,0
670982.877,0,0,0,1.000,1.000,0.996,-90.00,180.00,0.00,OPEN,0
670982.882,0,0,0,1.000,1.000,0.995,-90.00,180.00,0.00,OPEN,0
670982.887,0,0,0,1.000,1.000,0.997,-90.00,180.00,0.00,OPEN,0
670982.896,0,0,0,1.000,1.000,0.996,-90.00,180.00,0.00,OPEN,0
670982.900,0,0,0,1.000,1.000,0.997,-90.00,180.00,0.00,OPEN,0
670982.903,0,0,0,1.000,1.000,0.997,-90.00,180.00,0.00,OPEN,0
670982.907,0,0,0,1.000,1.000,0.992,-90.00,180.00,0.00,OPEN,0
670982.911,0,0,0,1.000,1.000,0.988,-90.00,180.00,0.00,OPEN,0
670982.915,0,0,0,1.000,1.000,0.972,-90.00,180.00,0.00,OPEN,0
670982.919,0,0,0,1.000,1.000,0.994,-90.00,180.00,0.00,OPEN,0
670982.923,0,0,0,1.000,1.000,0.996,-90.00,180.00,0.00,OPEN,0
670982.927,0,0,0,1.000,1.000,0.993,-90.00,180.00,0.00,OPEN,0
670982.931,0,0,0,1.000,1.000,0.994,-90.00,180.00,0.00,OPEN,0
670982.935,0,0,0,1.000,1.000,0.993,-90.00,180.00,0.00,OPEN,0
670982.939,0,0,0,1.000,1.000,0.994,-90.00,180.00,0.00,OPEN,0
670982.944,0,0,0,1.000,1.000,0.985,-90.00,180.00,0.00,OPEN,0
670982.948,0,0,0,1.000,1.000,0.889,-90.00,180.00,0.00,OPEN,0
670982.952,0,0,0,1.000,1.000,0.814,-90.00,180.00,0.00,OPEN,0
670982.956,0,0,0,1.000,1.000,0.943,-90.00,180.00,0.00,OPEN,0
670982.960,0,0,0,1.000,1.000,0.984,-90.00,180.00,0.00,OPEN,0
670982.963,0,0,0,1.000,1.000,0.991,-90.00,180.00,0.00,OPEN,0
670982.968,0,0,0,1.000,1.000,0.992,-90.00,180.00,0.00,OPEN,0
670982.972,0,0,0,1.000,1.000,0.995,-90.00,180.00,0.00,OPEN,0
670982.975,0,0,0,1.000,1.000,0.996,-90.00,180.00,0.00,OPEN,0
670982.979,0,0,0,1.000,1.000,0.998,-90.00,180.00,0.00,OPEN,0
670982.983,0,0,0,1.000,1.000,0.998,-90.00,180.00,0.00,OPEN,0
670982.987,0,0,0,1.000,1.000,0.997,-90.00,180.00,0.00,OPEN,0
670982.994,0,0,0,1.000,1.000,0.994,-90.00,180.00,0.00,OPEN,0
670982.998,0,0,0,1.000,1.000,0.994,-90.00,180.00,0.00,OPEN,0
670983.001,0,0,0,1.000,1.000,0.993,-90.00,180.00,0.00,OPEN,0
670983.010,0,0,0,1.000,1.000,0.989,-90.00,180.00,0.00,OPEN,0
670983.013,0,0,0,1.000,1.000,0.981,-90.00,180.00,0.00,OPEN,0
670983.018,0,0,0,1.000,1.000,0.978,-90.00,180.00,0.00,OPEN,0
670983.025,0,0,0,1.000,1.000,0.983,-90.00,180.00,0.00,OPEN,0
670983.029,0,0,0,1.000,1.000,0.993,-90.00,180.00,0.00,OPEN,0
670983.033,0,0,0,1.000,1.000,0.992,-90.00,180.00,0.00,OPEN,0
670983.039,0,0,0,1.000,1.000,0.992,-90.00,180.00,0.00,OPEN,0
670983.043,0,0,0,1.000,1.000,0.989,-90.00,180.00,0.00,OPEN,0
670983.047,0,0,0,1.000,1.000,0.988,-90.00,180.00,0.00,OPEN,0
670983.050,0,0,0,1.000,1.000,0.957,-90.00,180.00,0.00,OPEN,0
670983.057,0,0,0,1.000,1.000,0.920,-90.00,180.00,0.00,OPEN,0
670983.061,0,0,0,1.000,1.000,0.942,-90.00,180.00,0.00,OPEN,0
670983.065,0,0,0,1.000,1.000,0.936,-90.00,180.00,0.00,OPEN,0
670983.071,0,0,0,1.000,1.000,0.935,-90.00,180.00,0.00,OPEN,0
670983.075,0,0,0,1.000,1.000,0.911,-90.00,180.00,0.00,OPEN,0
670983.079,0,0,0,1.000,1.000,0.908,-90.00,180.00,0.00,OPEN,0
670983.088,0,0,0,1.000,1.000,0.968,-90.00,180.00,0.00,OPEN,0
670983.091,0,0,0,1.000,1.000,0.969,-90.00,180.00,0.00,OPEN,0
670983.096,0,0,0,1.000,1.000,0.981,-90.00,180.00,0.00,OPEN,0
670983.105,0,0,0,1.000,1.000,0.995,-90.00,180.00,0.00,OPEN,0
670983.113,0,0,0,1.000,1.000,0.996,-90.00,180.00,0.00,OPEN,0
670983.120,0,0,0,1.000,1.000,0.996,-90.00,180.00,0.00,OPEN,0
670983.124,0,0,0,1.000,1.000,0.994,-90.00,180.00,0.00,OPEN,0
670983.128,0,0,0,1.000,1.000,0.990,-90.00,180.00,0.00,OPEN,0
670983.134,0,0,0,1.000,1.000,0.986,-90.00,180.00,0.00,OPEN,0
670983.140,0,0,0,1.000,1.000,0.987,-90.00,180.00,0.00,OPEN,0
670983.149,0,0,0,1.000,1.000,0.982,-90.00,180.00,0.00,OPEN,0
670983.156,0,0,0,1.000,1.000,0.978,-90.00,180.00,0.00,OPEN,0
670983.163,0,0,0,1.000,1.000,0.983,-90.00,180.00,0.00,OPEN,0
670983.167,0,0,0,1.000,1.000,0.988,-90.00,180.00,0.00,OPEN,0
670983.173,0,0,0,1.000,1.000,0.994,-90.00,180.00,0.00,OPEN,0
670983.176,0,0,0,1.000,1.000,0.994,-90.00,180.00,0.00,OPEN,0
670983.181,0,0,0,1.000,1.000,0.990,-90.00,180.00,0.00,OPEN,0
670983.185,0,0,0,1.000,1.000,0.991,-90.00,180.00,0.00,OPEN,0
670983.190,0,0,0,1.000,1.000,0.989,-90.00,180.00,0.00,OPEN,0
670983.193,0,0,0,1.000,1.000,0.986,-90.00,180.00,0.00,OPEN,0
670983.198,0,0,0,1.000,1.000,0.985,-90.00,180.00,0.00,OPEN,0
670983.202,0,0,0,1.000,1.000,0.981,-90.00,180.00,0.00,OPEN,0
670983.207,0,0,0,1.000,1.000,0.979,-90.00,180.00,0.00,OPEN,0
670983.210,0,0,0,1.000,1.000,0.988,-90.00,180.00,0.00,OPEN,0
670983.215,0,0,0,1.000,1.000,0.987,-90.00,180.00,0.00,OPEN,0
670983.219,0,0,0,1.000,1.000,0.987,-90.00,180.00,0.00,OPEN,0
670983.223,0,0,0,1.000,1.000,0.987,-90.00,180.00,0.00,OPEN,0
670983.227,0,0,0,1.000,1.000,0.990,-90.00,180.00,0.00,OPEN,0
670983.231,0,0,0,1.000,1.000,0.994,-90.00,180.00,0.00,OPEN,0
670983.235,0,0,0,1.000,1.000,0.989,-90.00,180.00,0.00,OPEN,0
670983.239,0,0,0,1.000,1.000,0.987,-90.00,180.00,0.00,OPEN,0
670983.244,0,0,0,1.000,1.000,0.987,-90.00,180.00,0.00,OPEN,0
670983.248,0,0,0,1.000,1.000,0.990,-90.00,180.00,0.00,OPEN,0
670983.252,0,0,0,1.000,1.000,0.981,-90.00,180.00,0.00,OPEN,0
670983.256,0,0,0,1.000,1.000,0.979,-90.00,180.00,0.00,OPEN,0
670983.260,0,0,0,1.000,1.000,0.985,-90.00,180.00,0.00,OPEN,0
670983.269,0,0,0,1.000,1.000,1.000,-90.00,180.00,0.00,OPEN,0
670983.274,0,0,0,1.000,1.000,1.000,-90.00,180.00,0.00,OPEN,0
670983.278,0,0,0,1.000,1.000,1.000,-90.00,180.00,0.00,OPEN,0
670983.282,0,0,0,1.000,1.000,1.000,-90.00,180.00,0.00,OPEN,0
670983.291,0,0,0,1.000,1.000,1.000,-90.00,180.00,0.00,OPEN,0
670983.300,0,0,0,1.000,1.000,1.000,-90.00,180.00,0.00,OPEN,0
670983.309,0,0,0,1.000,1.000,1.000,-90.00,180.00,0.00,OPEN,0
670983.317,0,0,0,1.000,1.000,1.000,-90.00,180.00,0.00,OPEN,0
670983.326,0,0,0,1.000,1.000,1.000,-90.00,180.00,0.00,OPEN,0
670983.334,0,0,0,1.000,1.000,1.000,-90.00,180.00,0.00,OPEN,0
670983.343,0,0,0,1.000,1.000,1.000,-90.00,180.00,0.00,OPEN,0
670983.351,0,0,0,1.000,1.000,1.000,-90.00,180.00,0.00,OPEN,0
670983.360,1,0,0,1.000,1.000,1.000,-90.00,180.00,4.50,OPEN,1
670983.370,1,0,0,1.000,1.000,1.000,-90.00,180.00,4.50,OPEN,0
670983.378,1,0,0,1.000,1.000,1.000,-90.00,180.00,4.50,OPEN,0
670983.384,1,0,0,1.000,1.000,1.000,-90.00,180.00,4.50,OPEN,0
670983.392,1,0,0,1.000,1.000,1.000,-90.00,180.00,4.50,OPEN,0
670983.396,1,0,0,1.000,1.000,1.000,-90.00,180.00,4.50,OPEN,0
670983.404,1,0,0,1.000,1.000,0.924,-90.00,180.00,4.50,OPEN,0
670983.408,1,0,0,1.000,1.000,0.700,-90.00,180.00,4.50,OPEN,0
670983.416,1,0,0,1.000,1.000,0.790,-90.00,180.00,4.50,OPEN,0
670983.420,1,0,0,1.000,1.000,1.000,-90.00,180.00,4.50,OPEN,0
670983.427,1,0,0,1.000,1.000,1.000,-90.00,180.00,4.50,OPEN,0
670983.435,1,0,0,1.000,1.000,1.000,-90.00,180.00,4.50,OPEN,0
670983.444,1,0,0,0.773,1.000,1.000,-90.00,180.00,4.50,OPEN,0
670983.449,1,0,0,1.000,1.000,1.000,-90.00,180.00,4.50,OPEN,0
670983.455,1,0,0,1.000,1.000,1.000,-90.00,180.00,4.50,OPEN,0
670983.459,1,0,0,1.000,1.000,1.000,-90.00,180.00,4.50,OPEN,0
670983.463,1,0,0,1.000,1.000,1.000,-90.00,180.00,9.00,OPEN,1
670983.467,1,0,0,1.000,1.000,1.000,-90.00,180.00,9.00,OPEN,0
670983.472,1,0,0,1.000,1.000,1.000,-90.00,180.00,9.00,OPEN,0
670983.477,1,0,0,1.000,0.522,0.982,-90.00,180.00,9.00,OPEN,0
670983.480,0,0,0,1.000,0.998,0.732,-90.00,180.00,9.00,OPEN,0
670983.484,0,0,0,1.000,1.000,0.598,-90.00,180.00,9.00,OPEN,0
670983.489,0,0,0,1.000,1.000,0.546,-90.00,180.00,9.00,OPEN,0
670983.496,0,0,0,1.000,1.000,0.600,-90.00,180.00,9.00,OPEN,0
670983.504,0,0,0,1.000,1.000,0.996,-90.00,180.00,9.00,OPEN,0
670983.509,0,0,0,1.000,1.000,0.976,-90.00,180.00,9.00,OPEN,0
670983.513,0,0,0,1.000,1.000,0.959,-90.00,180.00,9.00,OPEN,0
670983.517,0,0,0,1.000,1.000,0.984,-90.00,180.00,9.00,OPEN,0
670983.522,0,0,0,1.000,0.992,0.988,-90.00,180.00,9.00,OPEN,0
670983.526,0,0,0,1.000,0.973,0.978,-90.00,180.00,9.00,OPEN,0
670983.530,0,0,0,1.000,0.743,0.999,-90.00,180.00,9.00,OPEN,0
670983.534,0,0,0,1.000,1.000,1.000,-90.00,180.00,9.00,OPEN,0
670983.542,0,0,0,1.000,1.000,0.995,-90.00,180.00,9.00,OPEN,0
670983.546,0,0,0,1.000,0.810,0.803,-90.00,180.00,9.00,OPEN,0
670983.550,0,0,0,1.000,0.977,0.574,-90.00,180.00,9.00,OPEN,0
670983.555,0,0,0,1.000,0.949,0.637,-90.00,180.00,9.00,OPEN,0
670983.559,0,0,0,1.000,0.778,0.794,-90.00,180.00,9.00,OPEN,0
670983.567,0,0,0,1.000,0.995,0.992,-90.00,180.00,9.00,OPEN,0
670983.577,0,0,0,1.000,1.000,1.000,-90.00,180.00,9.00,OPEN,0
670983.585,0,0,0,1.000,1.000,1.000,-90.00,180.00,9.00,OPEN,0
670983.592,0,0,0,1.000,1.000,1.000,-90.00,180.00,9.00,OPEN,0
670983.601,0,0,0,1.000,1.000,1.000,-90.00,180.00,9.00,OPEN,0
670983.609,0,0,0,1.000,1.000,1.000,-90.00,180.00,9.00,OPEN,0
670983.617,0,0,0,1.000,1.000,1.000,-90.00,180.00,9.00,OPEN,0
670983.622,0,0,0,1.000,1.000,1.000,-90.00,180.00,9.00,OPEN,0
670983.630,0,0,0,1.000,1.000,0.956,-90.00,180.00,9.00,OPEN,0
670983.639,0,0,0,1.000,1.000,0.562,-90.00,180.00,9.00,OPEN,0
670983.647,0,0,0,1.000,1.000,1.000,-90.00,180.00,9.00,OPEN,0
670983.652,0,0,0,1.000,1.000,1.000,-90.00,180.00,9.00,OPEN,0
670983.657,0,0,0,1.000,1.000,1.000,-90.00,180.00,9.00,OPEN,0
670983.661,0,0,0,1.000,1.000,1.000,-90.00,180.00,9.00,OPEN,0
670983.665,0,0,0,1.000,1.000,1.000,-90.00,180.00,9.00,OPEN,0
670983.670,0,0,0,1.000,1.000,1.000,-90.00,180.00,9.00,OPEN,0
670983.674,0,0,0,1.000,1.000,1.000,-90.00,180.00,9.00,OPEN,0
670983.678,0,0,0,1.000,1.000,1.000,-90.00,180.00,9.00,OPEN,0
670983.687,0,0,0,1.000,1.000,1.000,-90.00,180.00,9.00,OPEN,0
670983.695,0,0,0,1.000,1.000,1.000,-90.00,180.00,9.00,OPEN,0
670983.703,0,0,0,1.000,1.000,1.000,-90.00,180.00,9.00,OPEN,0
670983.712,0,0,0,1.000,1.000,1.000,-90.00,180.00,9.00,OPEN,0
670983.721,0,0,0,1.000,1.000,1.000,-90.00,180.00,9.00,OPEN,0
670983.727,0,0,0,1.000,1.000,1.000,-90.00,180.00,9.00,OPEN,0
670983.731,0,0,0,1.000,1.000,1.000,-90.00,180.00,9.00,OPEN,0
670983.735,0,0,0,1.000,1.000,1.000,-90.00,180.00,9.00,OPEN,0
670983.744,0,0,0,1.000,1.000,1.000,-90.00,180.00,9.00,OPEN,0
670983.751,0,0,0,1.000,0.999,1.000,-90.00,180.00,9.00,OPEN,0
670983.758,0,0,0,1.000,0.847,0.986,-90.00,180.00,9.00,OPEN,0
670983.766,0,0,0,1.000,1.000,0.759,-90.00,180.00,9.00,OPEN,0
670983.773,0,0,0,1.000,1.000,0.965,-90.00,180.00,9.00,OPEN,0
670983.777,0,0,0,1.000,1.000,0.994,-90.00,180.00,9.00,OPEN,0
670983.781,0,0,0,1.000,1.000,0.994,-90.00,180.00,9.00,OPEN,0
670983.785,0,0,0,1.000,1.000,0.993,-90.00,180.00,9.00,OPEN,0
670983.791,0,0,0,1.000,1.000,0.991,-90.00,180.00,9.00,OPEN,0
670983.796,0,0,0,1.000,1.000,0.987,-90.00,180.00,9.00,OPEN,0
670983.800,0,0,0,1.000,1.000,0.991,-90.00,180.00,9.00,OPEN,0
670983.808,0,0,0,1.000,1.000,0.995,-90.00,180.00,9.00,OPEN,0
670983.816,0,0,0,1.000,1.000,0.993,-90.00,180.00,9.00,OPEN,0
670983.822,0,0,0,1.000,1.000,0.985,-90.00,180.00,9.00,OPEN,0
670983.831,0,0,0,1.000,1.000,0.981,-90.00,180.00,9.00,OPEN,0
670983.839,0,0,0,1.000,1.000,0.991,-90.00,180.00,9.00,OPEN,0
670983.847,0,0,0,1.000,1.000,0.989,-90.00,180.00,9.00,OPEN,0
670983.856,0,0,0,1.000,1.000,0.980,-90.00,180.00,9.00,OPEN,0
670983.865,0,0,0,1.000,1.000,0.959,-90.00,180.00,9.00,OPEN,0
670983.873,0,0,0,1.000,1.000,0.587,-90.00,180.00,9.00,OPEN,0
670983.882,0,0,0,1.000,1.000,0.505,-90.00,180.00,9.00,OPEN,0
670983.890,0,0,0,1.000,1.000,0.514,-90.00,180.00,9.00,OPEN,0
670983.895,0,0,0,1.000,1.000,0.504,-90.00,180.00,9.00,OPEN,0
670983.899,0,0,0,1.000,1.000,0.527,-90.00,180.00,9.00,OPEN,0
670983.905,0,0,0,1.000,1.000,0.761,-90.00,180.00,9.00,OPEN,0
670983.909,0,0,0,1.000,1.000,0.892,-90.00,180.00,9.00,OPEN,0
670983.913,0,0,0,1.000,1.000,0.929,-90.00,180.00,9.00,OPEN,0
670983.921,0,0,0,1.000,1.000,0.940,-90.00,180.00,9.00,OPEN,0
670983.924,0,0,0,1.000,1.000,0.913,-90.00,180.00,9.00,OPEN,0
670983.929,0,0,0,1.000,1.000,0.912,-90.00,180.00,9.00,OPEN,0
670983.938,0,0,0,1.000,1.000,0.848,-90.00,180.00,9.00,OPEN,0
670983.942,0,0,0,1.000,1.000,0.874,-90.00,180.00,9.00,OPEN,0
670983.946,0,0,0,1.000,1.000,0.876,-90.00,180.00,9.00,OPEN,0
670983.950,0,0,0,1.000,1.000,0.909,-90.00,180.00,9.00,OPEN,0
670983.954,0,0,0,1.000,1.000,0.925,-90.00,180.00,9.00,OPEN,0
670983.963,0,0,0,1.000,1.000,0.970,-90.00,180.00,9.00,OPEN,0
670983.971,0,0,0,1.000,1.000,0.980,-90.00,180.00,9.00,OPEN,0
670983.979,0,0,0,1.000,1.000,0.982,-90.00,180.00,9.00,OPEN,0
670983.987,0,0,0,1.000,1.000,0.990,-90.00,180.00,9.00,OPEN,0
670983.993,0,0,0,1.000,1.000,0.993,-90.00,180.00,9.00,OPEN,0
670984.001,0,0,0,1.000,1.000,0.991,-90.00,180.00,9.00,OPEN,0
670984.008,0,0,0,1.000,1.000,0.993,-90.00,180.00,9.00,OPEN,0
670984.016,0,0,0,1.000,1.000,0.995,-90.00,180.00,9.00,OPEN,0
670984.024,0,0,0,1.000,1.000,0.995,-90.00,180.00,9.00,OPEN,0
670984.033,0,0,0,1.000,1.000,0.996,-90.00,180.00,9.00,OPEN,0
670984.038,0,0,0,1.000,1.000,0.997,-90.00,180.00,9.00,OPEN,0
670984.043,0,0,0,1.000,1.000,0.988,-90.00,180.00,9.00,OPEN,0
670984.048,0,0,0,1.000,1.000,0.949,-90.00,180.00,9.00,OPEN,0
670984.052,0,0,0,1.000,1.000,0.769,-90.00,180.00,9.00,OPEN,0
670984.056,0,0,0,1.000,1.000,0.682,-90.00,180.00,9.00,OPEN,0
670984.060,0,0,0,1.000,1.000,0.598,-90.00,180.00,9.00,OPEN,0
670984.064,0,0,0,1.000,1.000,0.619,-90.00,180.00,9.00,OPEN,0
670984.068,0,0,0,1.000,1.000,0.518,-90.00,180.00,9.00,OPEN,0
670984.073,0,0,0,1.000,1.000,0.527,-90.00,180.00,9.00,OPEN,0
670984.077,0,0,0,1.000,1.000,0.560,-90.00,180.00,9.00,OPEN,0
670984.081,0,0,0,1.000,1.000,0.534,-90.00,180.00,9.00,OPEN,0
670984.085,0,0,0,1.000,1.000,0.687,-90.00,180.00,9.00,OPEN,0
670984.089,0,0,0,1.000,1.000,0.702,-90.00,180.00,9.00,OPEN,0
670984.093,0,0,0,1.000,1.000,0.818,-90.00,180.00,9.00,OPEN,0
670984.097,0,0,0,1.000,1.000,0.739,-90.00,180.00,9.00,OPEN,0
670984.101,0,0,0,1.000,1.000,0.771,-90.00,180.00,9.00,OPEN,0
670984.105,0,0,0,1.000,1.000,0.750,-90.00,180.00,9.00,OPEN,0
670984.111,0,0,0,1.000,1.000,0.721,-90.00,180.00,9.00,OPEN,0
670984.115,0,0,0,1.000,1.000,0.617,-90.00,180.00,9.00,OPEN,0
670984.120,0,0,0,1.000,1.000,0.580,-90.00,180.00,9.00,OPEN,0
670984.128,0,0,0,1.000,1.000,0.666,-90.00,180.00,9.00,OPEN,0
670984.132,0,0,0,1.000,1.000,0.615,-90.00,180.00,9.00,OPEN,0
670984.138,0,0,0,1.000,1.000,0.527,-90.00,180.00,9.00,OPEN,0
670984.142,0,0,0,1.000,1.000,0.607,-90.00,180.00,9.00,OPEN,0
670984.146,0,0,0,1.000,1.000,0.608,-90.00,180.00,9.00,OPEN,0
670984.153,0,0,0,1.000,1.000,0.708,-90.00,180.00,9.00,OPEN,0
670984.157,0,0,0,1.000,1.000,0.855,-90.00,180.00,9.00,OPEN,0
670984.160,0,0,0,1.000,1.000,0.816,-90.00,180.00,9.00,OPEN,0
670984.164,0,0,0,1.000,1.000,0.858,-90.00,180.00,9.00,OPEN,0
670984.168,0,0,0,1.000,1.000,0.850,-90.00,180.00,9.00,OPEN,0
670984.172,0,0,0,1.000,1.000,0.653,-90.00,180.00,9.00,OPEN,0
670984.177,0,0,0,1.000,1.000,0.612,-90.00,180.00,9.00,OPEN,0
670984.184,0,0,0,1.000,1.000,0.638,-90.00,180.00,9.00,OPEN,0
670984.191,0,0,0,1.000,1.000,0.707,-90.00,180.00,9.00,OPEN,0
670984.198,0,0,0,1.000,1.000,0.766,-90.00,180.00,9.00,OPEN,0
670984.205,0,0,0,1.000,1.000,0.682,-90.00,180.00,9.00,OPEN,0
670984.212,0,0,0,1.000,1.000,0.505,-90.00,180.00,9.00,OPEN,0
670984.218,0,0,0,1.000,1.000,0.640,-90.00,180.00,9.00,OPEN,0
670984.223,0,0,0,1.000,1.000,0.733,-90.00,180.00,9.00,OPEN,0
670984.228,0,0,0,1.000,1.000,1.000,-90.00,180.00,9.00,OPEN,0
670984.232,0,0,0,1.000,1.000,1.000,-90.00,180.00,9.00,OPEN,0
670984.236,0,0,0,1.000,1.000,1.000,-90.00,180.00,9.00,OPEN,0
670984.246,0,0,0,1.000,1.000,1.000,-90.00,180.00,9.00,OPEN,0
670984.250,0,0,0,1.000,1.000,1.000,-90.00,180.00,9.00,OPEN,0
670984.254,0,0,0,1.000,1.000,1.000,-90.00,180.00,9.00,OPEN,0
670984.257,0,0,0,1.000,1.000,1.000,-90.00,180.00,9.00,OPEN,0
670984.261,0,0,0,1.000,1.000,1.000,-90.00,180.00,9.00,OPEN,0
670984.265,0,0,0,1.000,1.000,1.000,-90.00,180.00,9.00,OPEN,0
670984.270,0,0,0,1.000,1.000,1.000,-90.00,180.00,9.00,OPEN,0
670984.277,0,0,0,0.984,1.000,1.000,-90.00,180.00,9.00,OPEN,0
670984.281,0,0,0,0.985,1.000,1.000,-90.00,180.00,9.00,OPEN,0
670984.285,0,0,0,0.968,1.000,1.000,-90.00,180.00,9.00,OPEN,0
670984.291,0,0,0,0.966,1.000,1.000,-90.00,180.00,9.00,OPEN,0
670984.295,0,0,0,0.962,1.000,1.000,-90.00,180.00,9.00,OPEN,0
670984.299,0,0,0,0.957,1.000,1.000,-90.00,180.00,9.00,OPEN,0
670984.303,0,0,0,0.937,1.000,1.000,-90.00,180.00,9.00,OPEN,0
670984.307,0,0,0,0.984,1.000,1.000,-90.00,180.00,9.00,OPEN,0
670984.315,0,0,0,0.999,1.000,1.000,-90.00,180.00,9.00,OPEN,0
670984.319,0,0,0,1.000,1.000,1.000,-90.00,180.00,9.00,OPEN,0
670984.323,0,0,0,1.000,0.985,0.999,-90.00,180.00,9.00,OPEN,0
670984.327,0,0,0,1.000,1.000,1.000,-90.00,180.00,9.00,OPEN,0
670984.331,0,0,0,1.000,1.000,1.000,-90.00,180.00,9.00,OPEN,0
670984.335,0,0,0,1.000,0.997,1.000,-90.00,180.00,9.00,OPEN,0
670984.341,2,0,0,1.000,1.000,1.000,-90.00,180.00,4.50,OPEN,1
670984.345,2,0,0,1.000,1.000,1.000,-90.00,180.00,4.50,OPEN,0
670984.349,2,0,0,1.000,1.000,1.000,-90.00,180.00,4.50,OPEN,0
670984.353,2,0,0,1.000,1.000,1.000,-90.00,180.00,4.50,OPEN,0
670984.358,2,0,0,1.000,0.996,0.988,-90.00,180.00,4.50,OPEN,0
670984.362,2,0,0,1.000,0.999,0.980,-90.00,180.00,4.50,OPEN,0
670984.366,2,0,0,1.000,0.999,0.977,-90.00,180.00,4.50,OPEN,0
670984.372,2,0,0,1.000,0.998,0.962,-90.00,180.00,4.50,OPEN,0
670984.376,2,0,0,1.000,0.958,0.800,-90.00,180.00,4.50,OPEN,0
670984.380,2,0,0,1.000,1.000,0.998,-90.00,180.00,4.50,OPEN,0
670984.384,2,0,0,1.000,1.000,1.000,-90.00,180.00,4.50,OPEN,0
670984.389,2,0,0,1.000,1.000,1.000,-90.00,180.00,4.50,OPEN,0
670984.393,2,0,0,1.000,1.000,1.000,-90.00,180.00,4.50,OPEN,0
670984.397,2,0,0,1.000,1.000,1.000,-90.00,180.00,4.50,OPEN,0
670984.401,2,0,0,1.000,1.000,1.000,-90.00,180.00,4.50,OPEN,0
670984.406,2,0,0,1.000,1.000,1.000,-90.00,180.00,4.50,OPEN,0
670984.410,2,0,0,1.000,1.000,1.000,-90.00,180.00,4.50,OPEN,0
670984.416,2,0,0,1.000,1.000,1.000,-90.00,180.00,4.50,OPEN,0
670984.423,2,0,0,1.000,1.000,1.000,-90.00,180.00,4.50,OPEN,0
670984.430,2,0,0,1.000,1.000,1.000,-90.00,180.00,4.50,OPEN,0
670984.440,2,0,0,1.000,1.000,1.000,-90.00,180.00,4.50,OPEN,0
670984.445,2,0,0,1.000,1.000,1.000,-90.00,180.00,0.00,OPEN,1
670984.450,2,0,0,1.000,1.000,1.000,-90.00,180.00,0.00,OPEN,0
670984.455,2,0,0,1.000,1.000,1.000,-90.00,180.00,0.00,OPEN,0
670984.459,2,0,0,1.000,1.000,1.000,-90.00,180.00,0.00,OPEN,0
670984.463,2,0,0,1.000,1.000,1.000,-90.00,180.00,0.00,OPEN,0
670984.470,2,0,0,1.000,1.000,1.000,-90.00,180.00,0.00,OPEN,0
670984.477,2,0,0,1.000,1.000,1.000,-90.00,180.00,0.00,OPEN,0
670984.485,2,0,0,1.000,1.000,1.000,-90.00,180.00,0.00,OPEN,0
670984.489,2,0,0,1.000,1.000,1.000,-90.00,180.00,0.00,OPEN,0
670984.497,2,0,0,1.000,1.000,1.000,-90.00,180.00,0.00,OPEN,0
670984.504,2,0,0,1.000,1.000,1.000,-90.00,180.00,0.00,OPEN,0
670984.509,2,0,0,1.000,1.000,1.000,-90.00,180.00,0.00,OPEN,0
670984.516,2,0,0,1.000,1.000,1.000,-90.00,180.00,0.00,OPEN,0
670984.522,2,0,0,1.000,1.000,1.000,-90.00,180.00,0.00,OPEN,0
670984.526,2,0,0,1.000,1.000,1.000,-90.00,180.00,0.00,OPEN,0
670984.530,2,0,0,1.000,1.000,1.000,-90.00,180.00,0.00,OPEN,0
670984.534,2,0,0,1.000,1.000,1.000,-90.00,180.00,0.00,OPEN,0
670984.538,2,0,0,1.000,1.000,1.000,-90.00,180.00,0.00,OPEN,0
670984.542,2,0,0,1.000,1.000,1.000,-90.00,180.00,0.00,OPEN,0
670984.546,2,0,0,1.000,1.000,1.000,-90.00,180.00,-4.50,OPEN,1
670984.550,2,0,0,1.000,1.000,1.000,-90.00,180.00,-4.50,OPEN,0
670984.555,2,0,0,1.000,1.000,1.000,-90.00,180.00,-4.50,OPEN,0
670984.559,2,0,0,1.000,1.000,1.000,-90.00,180.00,-4.50,OPEN,0
670984.563,2,0,0,1.000,1.000,1.000,-90.00,180.00,-4.50,OPEN,0
670984.567,2,0,0,1.000,1.000,1.000,-90.00,180.00,-4.50,OPEN,0
670984.571,2,0,0,1.000,1.000,1.000,-90.00,180.00,-4.50,OPEN,0
670984.575,2,0,0,1.000,1.000,1.000,-90.00,180.00,-4.50,OPEN,0
670984.579,2,0,0,1.000,1.000,1.000,-90.00,180.00,-4.50,OPEN,0
670984.583,2,0,0,1.000,1.000,1.000,-90.00,180.00,-4.50,OPEN,0
670984.588,2,0,0,1.000,1.000,1.000,-90.00,180.00,-4.50,OPEN,0
670984.592,2,0,0,1.000,1.000,1.000,-90.00,180.00,-4.50,OPEN,0
670984.595,2,0,0,1.000,1.000,1.000,-90.00,180.00,-4.50,OPEN,0
670984.599,2,0,0,1.000,1.000,1.000,-90.00,180.00,-4.50,OPEN,0
670984.604,2,0,0,1.000,1.000,1.000,-90.00,180.00,-4.50,OPEN,0
670984.607,2,0,0,1.000,1.000,1.000,-90.00,180.00,-4.50,OPEN,0
670984.611,2,0,0,1.000,1.000,1.000,-90.00,180.00,-4.50,OPEN,0
670984.615,2,0,0,1.000,1.000,1.000,-90.00,180.00,-4.50,OPEN,0
670984.620,2,0,0,1.000,1.000,1.000,-90.00,180.00,-4.50,OPEN,0
670984.625,2,0,0,1.000,1.000,1.000,-90.00,180.00,-4.50,OPEN,0
670984.629,2,0,0,1.000,1.000,1.000,-90.00,180.00,-4.50,OPEN,0
670984.635,2,0,0,1.000,1.000,1.000,-90.00,180.00,-4.50,OPEN,0
670984.647,2,0,0,1.000,1.000,1.000,-90.00,180.00,-9.00,OPEN,1
670984.657,2,0,0,1.000,1.000,1.000,-90.00,180.00,-9.00,OPEN,0
670984.663,2,0,0,1.000,1.000,1.000,-90.00,180.00,-9.00,OPEN,0
670984.670,2,0,0,1.000,1.000,1.000,-90.00,180.00,-9.00,OPEN,0
670984.678,2,0,0,1.000,1.000,1.000,-90.00,180.00,-9.00,OPEN,0
670984.685,2,0,0,1.000,1.000,1.000,-90.00,180.00,-9.00,OPEN,0
670984.693,2,0,0,1.000,1.000,1.000,-90.00,180.00,-9.00,OPEN,0
670984.699,2,0,0,1.000,1.000,1.000,-90.00,180.00,-9.00,OPEN,0
670984.707,2,0,0,1.000,1.000,1.000,-90.00,180.00,-9.00,OPEN,0
670984.715,2,0,0,1.000,1.000,1.000,-90.00,180.00,-9.00,OPEN,0
670984.721,2,0,0,1.000,1.000,1.000,-90.00,180.00,-9.00,OPEN,0
670984.729,2,0,0,1.000,1.000,1.000,-90.00,180.00,-9.00,OPEN,0
670984.734,2,0,0,1.000,1.000,1.000,-90.00,180.00,-9.00,OPEN,0
670984.739,2,0,0,1.000,1.000,1.000,-90.00,180.00,-9.00,OPEN,0
670984.742,2,0,0,1.000,1.000,1.000,-90.00,180.00,-9.00,OPEN,0
670984.746,2,0,0,1.000,1.000,1.000,-90.00,180.00,-9.00,OPEN,0
670984.749,2,0,0,1.000,1.000,1.000,-90.00,180.00,-13.50,OPEN,1
670984.754,2,0,0,1.000,1.000,1.000,-90.00,180.00,-13.50,OPEN,0
670984.762,2,0,0,1.000,1.000,1.000,-90.00,180.00,-13.50,OPEN,0
670984.765,2,0,0,1.000,1.000,1.000,-90.00,180.00,-13.50,OPEN,0
670984.769,2,0,0,1.000,1.000,1.000,-90.00,180.00,-13.50,OPEN,0
670984.773,2,0,0,1.000,1.000,1.000,-90.00,180.00,-13.50,OPEN,0
670984.778,2,0,0,1.000,1.000,1.000,-90.00,180.00,-13.50,OPEN,0
670984.782,2,0,0,1.000,1.000,1.000,-90.00,180.00,-13.50,OPEN,0
670984.787,2,0,0,1.000,1.000,1.000,-90.00,180.00,-13.50,OPEN,0
670984.794,2,0,0,1.000,1.000,1.000,-90.00,180.00,-13.50,OPEN,0
670984.797,2,0,0,1.000,1.000,1.000,-90.00,180.00,-13.50,OPEN,0
670984.801,2,0,0,1.000,1.000,1.000,-90.00,180.00,-13.50,OPEN,0
670984.806,2,0,0,1.000,1.000,1.000,-90.00,180.00,-13.50,OPEN,0
670984.810,2,0,0,1.000,1.000,1.000,-90.00,180.00,-13.50,OPEN,0
670984.814,2,0,0,1.000,1.000,1.000,-90.00,180.00,-13.50,OPEN,0
670984.818,2,0,0,1.000,1.000,1.000,-90.00,180.00,-13.50,OPEN,0
670984.824,2,0,0,1.000,1.000,1.000,-90.00,180.00,-13.50,OPEN,0
670984.827,2,0,0,1.000,1.000,1.000,-90.00,180.00,-13.50,OPEN,0
670984.831,2,0,0,1.000,1.000,1.000,-90.00,180.00,-13.50,OPEN,0
670984.835,2,0,0,1.000,1.000,1.000,-90.00,180.00,-13.50,OPEN,0
670984.840,2,0,0,1.000,1.000,1.000,-90.00,180.00,-13.50,OPEN,0
670984.844,2,0,0,1.000,1.000,1.000,-90.00,180.00,-13.50,OPEN,0
670984.848,2,0,0,1.000,1.000,1.000,-90.00,180.00,-13.50,OPEN,0
670984.852,2,0,0,1.000,1.000,1.000,-90.00,180.00,-18.00,OPEN,1
670984.859,2,0,0,1.000,1.000,1.000,-90.00,180.00,-18.00,OPEN,0
670984.866,2,0,0,1.000,1.000,1.000,-90.00,180.00,-18.00,OPEN,0
670984.871,2,0,0,1.000,1.000,1.000,-90.00,180.00,-18.00,OPEN,0
670984.875,2,0,0,1.000,1.000,1.000,-90.00,180.00,-18.00,OPEN,0
670984.879,2,0,0,1.000,1.000,1.000,-90.00,180.00,-18.00,OPEN,0
670984.883,2,0,0,1.000,1.000,1.000,-90.00,180.00,-18.00,OPEN,0
670984.888,2,0,0,1.000,1.000,1.000,-90.00,180.00,-18.00,OPEN,0
670984.892,2,0,0,1.000,1.000,1.000,-90.00,180.00,-18.00,OPEN,0
670984.896,2,0,0,1.000,1.000,1.000,-90.00,180.00,-18.00,OPEN,0
670984.904,2,0,0,0.999,1.000,1.000,-90.00,180.00,-18.00,OPEN,0
670984.908,2,0,0,0.998,1.000,1.000,-90.00,180.00,-18.00,OPEN,0
670984.914,2,0,0,0.994,1.000,1.000,-90.00,180.00,-18.00,OPEN,0
670984.923,2,0,0,0.963,1.000,1.000,-90.00,180.00,-18.00,OPEN,0
670984.931,2,0,0,0.904,1.000,1.000,-90.00,180.00,-18.00,OPEN,0
670984.938,2,0,0,0.723,1.000,1.000,-90.00,180.00,-18.00,OPEN,0
670984.942,2,0,0,0.684,1.000,1.000,-90.00,180.00,-18.00,OPEN,0
670984.950,2,0,0,0.927,1.000,1.000,-90.00,180.00,-18.00,OPEN,0
670984.956,2,0,0,0.966,1.000,1.000,-90.00,180.00,-22.50,OPEN,1
670984.964,2,0,0,0.999,1.000,1.000,-90.00,180.00,-22.50,OPEN,0
670984.972,2,0,0,1.000,1.000,1.000,-90.00,180.00,-22.50,OPEN,0
670984.975,2,0,0,1.000,1.000,1.000,-90.00,180.00,-22.50,OPEN,0
670984.979,2,0,0,1.000,1.000,1.000,-90.00,180.00,-22.50,OPEN,0
670984.985,2,0,0,1.000,1.000,1.000,-90.00,180.00,-22.50,OPEN,0
670984.993,0,0,0,1.000,1.000,1.000,-90.00,180.00,-22.50,OPEN,0
670984.998,0,0,0,1.000,1.000,1.000,-90.00,180.00,-22.50,OPEN,0
670985.002,0,0,0,1.000,1.000,1.000,-90.00,180.00,-22.50,OPEN,0
670985.006,0,0,0,1.000,1.000,1.000,-90.00,180.00,-22.50,OPEN,0
670985.009,0,0,0,1.000,1.000,1.000,-90.00,180.00,-22.50,OPEN,0
670985.013,0,0,0,1.000,1.000,1.000,-90.00,180.00,-22.50,OPEN,0
670985.017,0,0,0,1.000,1.000,1.000,-90.00,180.00,-22.50,OPEN,0
670985.021,0,0,0,1.000,1.000,1.000,-90.00,180.00,-22.50,OPEN,0
670985.025,0,0,0,1.000,1.000,1.000,-90.00,180.00,-22.50,OPEN,0
670985.029,0,0,0,1.000,1.000,1.000,-90.00,180.00,-22.50,OPEN,0
670985.032,0,0,0,1.000,1.000,1.000,-90.00,180.00,-22.50,OPEN,0
670985.036,0,0,0,1.000,1.000,1.000,-90.00,180.00,-22.50,OPEN,0
670985.040,0,0,0,1.000,1.000,1.000,-90.00,180.00,-22.50,OPEN,0
670985.045,0,0,0,1.000,1.000,1.000,-90.00,180.00,-22.50,OPEN,0
670985.050,0,0,0,1.000,1.000,1.000,-90.00,180.00,-22.50,OPEN,0
670985.056,0,0,0,1.000,1.000,1.000,-90.00,180.00,-22.50,OPEN,0
670985.059,0,0,0,1.000,1.000,1.000,-90.00,180.00,-22.50,OPEN,0
670985.063,0,0,0,1.000,1.000,1.000,-90.00,180.00,-22.50,OPEN,0
670985.067,0,0,0,1.000,1.000,1.000,-90.00,180.00,-22.50,OPEN,0
670985.073,0,0,0,1.000,1.000,1.000,-90.00,180.00,-22.50,OPEN,0
670985.077,0,0,0,1.000,1.000,1.000,-90.00,180.00,-22.50,OPEN,0
670985.081,0,0,0,1.000,1.000,1.000,-90.00,180.00,-22.50,OPEN,0
670985.085,0,0,0,1.000,1.000,1.000,-90.00,180.00,-22.50,OPEN,0
670985.089,0,0,0,1.000,1.000,1.000,-90.00,180.00,-22.50,OPEN,0
670985.093,0,0,0,1.000,1.000,1.000,-90.00,180.00,-22.50,OPEN,0
670985.097,0,0,0,1.000,1.000,1.000,-90.00,180.00,-22.50,OPEN,0
670985.100,0,0,0,1.000,1.000,1.000,-90.00,180.00,-22.50,OPEN,0
670985.104,0,0,0,1.000,1.000,1.000,-90.00,180.00,-22.50,OPEN,0
670985.108,0,0,0,1.000,1.000,1.000,-90.00,180.00,-22.50,OPEN,0
670985.112,0,0,0,1.000,1.000,1.000,-90.00,180.00,-22.50,OPEN,0
670985.116,0,0,0,1.000,1.000,1.000,-90.00,180.00,-22.50,OPEN,0
670985.120,0,0,0,1.000,1.000,1.000,-90.00,180.00,-22.50,OPEN,0
670985.124,0,0,0,1.000,1.000,1.000,-90.00,180.00,-22.50,OPEN,0
670985.128,0,0,0,1.000,1.000,1.000,-90.00,180.00,-22.50,OPEN,0
670985.132,0,0,0,1.000,1.000,1.000,-90.00,180.00,-22.50,OPEN,0
670985.136,0,0,0,1.000,1.000,1.000,-90.00,180.00,-22.50,OPEN,0
670985.141,0,0,0,1.000,1.000,1.000,-90.00,180.00,-22.50,OPEN,0
670985.145,0,0,0,1.000,1.000,1.000,-90.00,180.00,-22.50,OPEN,0
670985.148,0,0,0,1.000,1.000,1.000,-90.00,180.00,-22.50,OPEN,0
670985.152,0,0,0,1.000,1.000,1.000,-90.00,180.00,-22.50,OPEN,0
670985.160,0,0,0,1.000,1.000,1.000,-90.00,180.00,-22.50,OPEN,0
670985.164,0,0,0,1.000,1.000,1.000,-90.00,180.00,-22.50,OPEN,0
670985.168,0,0,0,1.000,1.000,1.000,-90.00,180.00,-22.50,OPEN,0
670985.173,0,0,0,1.000,1.000,1.000,-90.00,180.00,-22.50,OPEN,0
670985.177,0,0,0,1.000,1.000,1.000,-90.00,180.00,-22.50,OPEN,0
670985.181,0,0,0,1.000,1.000,1.000,-90.00,180.00,-22.50,OPEN,0
670985.185,0,0,0,1.000,1.000,1.000,-90.00,180.00,-22.50,OPEN,0
670985.191,0,0,0,1.000,1.000,1.000,-90.00,180.00,-22.50,OPEN,0
670985.196,0,0,0,1.000,1.000,1.000,-90.00,180.00,-22.50,OPEN,0
670985.202,0,0,0,1.000,1.000,1.000,-90.00,180.00,-22.50,OPEN,0
670985.207,0,0,0,1.000,1.000,1.000,-90.00,180.00,-22.50,OPEN,0
670985.212,0,0,0,1.000,1.000,1.000,-90.00,180.00,-22.50,OPEN,0
670985.219,0,0,0,1.000,1.000,1.000,-90.00,180.00,-22.50,OPEN,0
670985.223,0,0,0,1.000,1.000,1.000,-90.00,180.00,-22.50,OPEN,0
670985.227,0,0,0,1.000,1.000,1.000,-90.00,180.00,-22.50,OPEN,0
670985.231,0,0,0,1.000,1.000,1.000,-90.00,180.00,-22.50,OPEN,0
670985.235,0,0,0,1.000,1.000,1.000,-90.00,180.00,-22.50,OPEN,0
670985.240,0,0,0,1.000,1.000,1.000,-90.00,180.00,-22.50,OPEN,0
670985.244,0,0,0,1.000,1.000,1.000,-90.00,180.00,-22.50,OPEN,0
670985.250,0,0,0,1.000,1.000,1.000,-90.00,180.00,-22.50,OPEN,0
670985.254,0,0,0,1.000,1.000,1.000,-90.00,180.00,-22.50,OPEN,0
670985.258,0,0,0,1.000,1.000,1.000,-90.00,180.00,-22.50,OPEN,0
670985.263,0,0,0,1.000,1.000,1.000,-90.00,180.00,-22.50,OPEN,0
670985.267,0,0,0,1.000,1.000,1.000,-90.00,180.00,-22.50,OPEN,0
670985.271,0,0,0,1.000,1.000,1.000,-90.00,180.00,-22.50,OPEN,0
670985.275,0,0,0,1.000,1.000,1.000,-90.00,180.00,-22.50,OPEN,0
670985.279,0,0,0,1.000,1.000,1.000,-90.00,180.00,-22.50,OPEN,0
670985.283,0,0,0,1.000,1.000,1.000,-90.00,180.00,-22.50,OPEN,0
670985.288,0,0,0,1.000,1.000,1.000,-90.00,180.00,-22.50,OPEN,0
670985.291,0,0,0,1.000,1.000,1.000,-90.00,180.00,-22.50,OPEN,0
670985.297,0,0,0,1.000,1.000,1.000,-90.00,180.00,-22.50,OPEN,0
670985.303,0,0,0,1.000,1.000,1.000,-90.00,180.00,-22.50,OPEN,0
670985.314,0,0,0,1.000,1.000,1.000,-90.00,180.00,-22.50,OPEN,0
670985.318,0,0,0,1.000,1.000,1.000,-90.00,180.00,-22.50,OPEN,0
670985.329,0,0,0,1.000,1.000,1.000,-90.00,180.00,-22.50,OPEN,0
670985.334,0,0,0,1.000,1.000,1.000,-90.00,180.00,-22.50,OPEN,0
670985.338,0,0,0,1.000,1.000,1.000,-90.00,180.00,-22.50,OPEN,0
670985.342,0,0,0,1.000,1.000,1.000,-90.00,180.00,-22.50,OPEN,0
670985.346,0,0,0,1.000,1.000,1.000,-90.00,180.00,-22.50,OPEN,0
670985.350,0,0,0,1.000,1.000,1.000,-90.00,180.00,-22.50,OPEN,0
670985.355,0,0,0,1.000,1.000,1.000,-90.00,180.00,-22.50,OPEN,0
670985.359,0,0,0,1.000,1.000,1.000,-90.00,180.00,-22.50,OPEN,0
670985.364,0,0,0,1.000,1.000,1.000,-90.00,180.00,-22.50,OPEN,0
670985.369,0,0,0,1.000,1.000,1.000,-90.00,180.00,-22.50,OPEN,0
670985.379,0,0,0,1.000,1.000,1.000,-90.00,180.00,-22.50,OPEN,0
670985.383,0,0,0,1.000,1.000,1.000,-90.00,180.00,-22.50,OPEN,0
670985.388,0,0,0,1.000,1.000,1.000,-90.00,180.00,-22.50,OPEN,0
670985.392,0,0,0,1.000,1.000,1.000,-90.00,180.00,-22.50,OPEN,0
670985.395,0,0,0,1.000,1.000,1.000,-90.00,180.00,-22.50,OPEN,0
670985.399,0,0,0,1.000,1.000,1.000,-90.00,180.00,-22.50,OPEN,0
670985.404,0,0,0,1.000,1.000,1.000,-90.00,180.00,-22.50,OPEN,0
670985.412,0,0,0,1.000,1.000,1.000,-90.00,180.00,-22.50,OPEN,0
670985.416,0,0,0,1.000,1.000,1.000,-90.00,180.00,-22.50,OPEN,0
670985.423,0,0,0,1.000,1.000,1.000,-90.00,180.00,-22.50,OPEN,0
670985.432,0,0,0,1.000,1.000,1.000,-90.00,180.00,-22.50,OPEN,0
670985.438,0,0,0,1.000,1.000,1.000,-90.00,180.00,-22.50,OPEN,0
670985.445,0,0,0,1.000,1.000,1.000,-90.00,180.00,-22.50,OPEN,0
670985.453,0,0,0,1.000,1.000,1.000,-90.00,180.00,-22.50,OPEN,0
670985.461,0,0,0,1.000,1.000,1.000,-90.00,180.00,-22.50,OPEN,0
670985.469,0,0,0,1.000,1.000,1.000,-90.00,180.00,-22.50,OPEN,0
670985.478,0,0,0,1.000,1.000,1.000,-90.00,180.00,-22.50,OPEN,0
670985.486,0,0,0,1.000,1.000,1.000,-90.00,180.00,-22.50,OPEN,0
670985.494,0,0,0,0.999,1.000,1.000,-90.00,180.00,-22.50,OPEN,0
670985.503,0,0,0,0.997,1.000,1.000,-90.00,180.00,-22.50,OPEN,0
670985.510,0,0,0,0.997,1.000,1.000,-90.00,180.00,-22.50,OPEN,0
670985.515,0,0,0,0.991,1.000,1.000,-90.00,180.00,-22.50,OPEN,0
670985.519,0,0,0,0.989,1.000,1.000,-90.00,180.00,-22.50,OPEN,0
670985.526,0,0,0,0.999,1.000,1.000,-90.00,180.00,-22.50,OPEN,0
670985.530,0,0,0,1.000,1.000,1.000,-90.00,180.00,-22.50,OPEN,0
670985.534,0,0,0,1.000,1.000,1.000,-90.00,180.00,-22.50,OPEN,0
670985.539,0,0,0,1.000,1.000,1.000,-90.00,180.00,-22.50,OPEN,0
670985.542,0,0,0,1.000,1.000,1.000,-90.00,180.00,-22.50,OPEN,0
670985.547,0,0,0,1.000,1.000,1.000,-90.00,180.00,-22.50,OPEN,0
670985.551,0,0,0,1.000,1.000,1.000,-90.00,180.00,-22.50,OPEN,0
670985.556,0,0,0,1.000,1.000,1.000,-90.00,180.00,-22.50,OPEN,0
670985.560,0,0,0,1.000,1.000,1.000,-90.00,180.00,-22.50,OPEN,0
670985.568,0,0,0,1.000,1.000,1.000,-90.00,180.00,-22.50,OPEN,0
670985.573,0,0,0,1.000,1.000,1.000,-90.00,180.00,-22.50,OPEN,0
670985.578,0,0,0,1.000,1.000,1.000,-90.00,180.00,-22.50,OPEN,0
670985.582,0,0,0,1.000,1.000,1.000,-90.00,180.00,-22.50,OPEN,0
670985.586,0,0,0,1.000,1.000,1.000,-90.00,180.00,-22.50,OPEN,0
670985.591,0,0,0,1.000,1.000,1.000,-90.00,180.00,-22.50,OPEN,0
670985.595,0,0,0,1.000,1.000,1.000,-90.00,180.00,-22.50,OPEN,0
670985.599,0,0,0,1.000,1.000,1.000,-90.00,180.00,-22.50,OPEN,0
670985.606,0,0,0,1.000,1.000,1.000,-90.00,180.00,-22.50,OPEN,0
670985.609,0,0,0,1.000,1.000,1.000,-90.00,180.00,-22.50,OPEN,0
670985.613,0,0,0,1.000,1.000,1.000,-90.00,180.00,-22.50,OPEN,0
670985.617,0,0,0,1.000,1.000,1.000,-90.00,180.00,-22.50,OPEN,0
670985.627,0,0,0,1.000,1.000,1.000,-90.00,180.00,-22.50,OPEN,0
670985.635,0,0,0,1.000,1.000,1.000,-90.00,180.00,-22.50,OPEN,0
670985.640,0,0,0,1.000,1.000,1.000,-90.00,180.00,-22.50,OPEN,0
670985.644,0,0,0,1.000,1.000,1.000,-90.00,180.00,-22.50,OPEN,0
670985.653,0,0,0,1.000,1.000,1.000,-90.00,180.00,-22.50,OPEN,0
670985.656,0,0,0,1.000,1.000,1.000,-90.00,180.00,-22.50,OPEN,0
670985.661,0,0,0,0.863,1.000,1.000,-90.00,180.00,-22.50,OPEN,0
670985.664,0,0,0,0.956,1.000,1.000,-90.00,180.00,-22.50,OPEN,0
670985.668,0,0,0,0.993,1.000,1.000,-90.00,180.00,-22.50,OPEN,0
670985.672,0,0,0,0.993,1.000,1.000,-90.00,180.00,-22.50,OPEN,0
670985.676,0,0,0,0.970,1.000,1.000,-90.00,180.00,-22.50,OPEN,0
670985.680,0,0,0,0.616,1.000,1.000,-90.00,180.00,-22.50,OPEN,0
670985.684,0,0,0,0.909,1.000,1.000,-90.00,180.00,-22.50,OPEN,0
670985.689,0,0,0,0.990,1.000,1.000,-90.00,180.00,-22.50,OPEN,0
670985.692,0,0,0,0.994,1.000,1.000,-90.00,180.00,-22.50,OPEN,0
670985.696,0,0,0,0.995,1.000,1.000,-90.00,180.00,-22.50,OPEN,0
670985.702,0,0,0,0.996,1.000,1.000,-90.00,180.00,-22.50,OPEN,0
670985.712,0,0,0,0.995,1.000,1.000,-90.00,180.00,-22.50,OPEN,0
670985.719,0,0,0,0.993,1.000,1.000,-90.00,180.00,-22.50,OPEN,0
670985.723,3,0,0,0.990,1.000,1.000,-90.00,180.00,-22.50,CLOSED,0
670985.728,3,0,0,0.985,1.000,1.000,-90.00,180.00,-22.50,CLOSED,0
670985.732,3,0,0,0.983,1.000,1.000,-90.00,180.00,-22.50,CLOSED,0
670985.736,3,0,0,0.985,1.000,1.000,-90.00,180.00,-22.50,CLOSED,0
670985.740,3,0,0,0.989,1.000,1.000,-90.00,180.00,-22.50,CLOSED,0
670985.744,3,0,0,0.995,1.000,1.000,-90.00,180.00,-22.50,CLOSED,0
670985.749,3,0,0,0.997,1.000,1.000,-90.00,180.00,-22.50,CLOSED,0
670985.754,3,0,0,0.999,1.000,1.000,-90.00,180.00,-22.50,CLOSED,0
670985.758,3,0,0,0.999,1.000,1.000,-90.00,180.00,-22.50,CLOSED,0
670985.762,3,0,0,1.000,1.000,1.000,-90.00,180.00,-22.50,CLOSED,0
670985.766,3,0,0,1.000,1.000,1.000,-90.00,180.00,-22.50,CLOSED,0
670985.770,3,0,0,1.000,1.000,1.000,-90.00,180.00,-22.50,CLOSED,0
670985.778,3,0,0,1.000,1.000,1.000,-90.00,180.00,-22.50,CLOSED,0
670985.782,3,0,0,1.000,1.000,1.000,-90.00,180.00,-22.50,CLOSED,0
670985.786,3,0,0,1.000,1.000,1.000,-90.00,180.00,-22.50,CLOSED,0
670985.794,3,0,0,1.000,1.000,1.000,-90.00,180.00,-22.50,CLOSED,0
670985.799,3,0,0,1.000,1.000,1.000,-90.00,180.00,-22.50,CLOSED,0
670985.803,3,0,0,1.000,1.000,1.000,-90.00,180.00,-22.50,CLOSED,0
670985.812,3,0,0,1.000,1.000,1.000,-90.00,180.00,-22.50,CLOSED,0
670985.817,3,0,0,1.000,1.000,1.000,-90.00,180.00,-22.50,CLOSED,0
670985.821,3,0,0,1.000,1.000,1.000,-90.00,180.00,-22.50,CLOSED,0
670985.825,3,0,0,1.000,1.000,1.000,-90.00,180.00,-22.50,CLOSED,0
670985.833,3,0,0,1.000,1.000,1.000,-90.00,180.00,-22.50,CLOSED,0
670985.838,3,0,0,1.000,1.000,1.000,-90.00,180.00,-22.50,CLOSED,0
670985.846,3,0,0,1.000,1.000,1.000,-90.00,180.00,-22.50,CLOSED,0
670985.855,3,0,0,0.999,1.000,1.000,-90.00,180.00,-22.50,CLOSED,0
670985.871,3,0,0,0.997,1.000,1.000,-90.00,180.00,-22.50,CLOSED,0
670985.881,3,0,0,0.992,1.000,1.000,-90.00,180.00,-22.50,CLOSED,0
670985.894,3,0,0,0.987,1.000,1.000,-90.00,180.00,-22.50,CLOSED,0
670985.904,3,0,0,0.985,1.000,1.000,-90.00,180.00,-22.50,CLOSED,0
670985.912,3,0,0,0.989,1.000,1.000,-90.00,180.00,-22.50,CLOSED,0
670985.921,3,0,0,0.993,1.000,1.000,-90.00,180.00,-22.50,CLOSED,0
670985.929,3,0,0,0.996,1.000,1.000,-90.00,180.00,-22.50,CLOSED,0
670985.938,3,0,0,0.997,1.000,1.000,-90.00,180.00,-22.50,CLOSED,0
670985.949,3,0,0,0.998,1.000,1.000,-90.00,180.00,-22.50,CLOSED,0
670985.959,3,0,0,0.998,1.000,1.000,-90.00,180.00,-22.50,CLOSED,0
670985.964,3,0,0,0.999,1.000,1.000,-90.00,180.00,-22.50,CLOSED,0
670985.971,3,0,0,0.999,1.000,1.000,-90.00,180.00,-22.50,CLOSED,0
670985.974,3,0,0,0.999,1.000,1.000,-90.00,180.00,-22.50,CLOSED,0
670985.978,3,0,0,1.000,1.000,1.000,-90.00,180.00,-22.50,CLOSED,0
670985.983,3,0,0,1.000,1.000,1.000,-90.00,180.00,-22.50,CLOSED,0
670985.988,3,0,0,1.000,1.000,1.000,-90.00,180.00,-22.50,CLOSED,0
670985.996,3,0,0,1.000,1.000,1.000,-90.00,180.00,-22.50,CLOSED,0
670986.001,3,0,0,1.000,1.000,1.000,-90.00,180.00,-22.50,CLOSED,0
670986.009,3,0,0,1.000,1.000,1.000,-90.00,180.00,-22.50,CLOSED,0
670986.019,3,0,0,1.000,1.000,1.000,-90.00,180.00,-22.50,CLOSED,0
670986.023,3,0,0,1.000,1.000,1.000,-90.00,180.00,-22.50,CLOSED,0
670986.027,3,0,0,1.000,1.000,1.000,-90.00,180.00,-22.50,CLOSED,0
670986.031,3,0,0,1.000,1.000,1.000,-90.00,180.00,-22.50,CLOSED,0
670986.035,3,0,0,1.000,1.000,1.000,-90.00,180.00,-22.50,CLOSED,0
670986.040,3,0,0,1.000,1.000,1.000,-90.00,180.00,-22.50,CLOSED,0
670986.044,3,0,0,1.000,1.000,1.000,-90.00,180.00,-22.50,CLOSED,0
670986.050,3,0,0,1.000,1.000,1.000,-90.00,180.00,-22.50,CLOSED,0
670986.055,3,0,0,1.000,1.000,1.000,-90.00,180.00,-22.50,CLOSED,0
670986.058,3,0,0,1.000,1.000,1.000,-90.00,180.00,-22.50,CLOSED,0
670986.063,3,0,0,1.000,1.000,1.000,-90.00,180.00,-22.50,CLOSED,0
670986.066,3,0,0,1.000,1.000,1.000,-90.00,180.00,-22.50,CLOSED,0
670986.071,3,0,0,1.000,1.000,1.000,-90.00,180.00,-22.50,CLOSED,0
670986.074,3,0,0,1.000,1.000,1.000,-90.00,180.00,-22.50,CLOSED,0
670986.083,3,0,0,1.000,1.000,1.000,-90.00,180.00,-22.50,CLOSED,0
670986.087,3,0,0,1.000,1.000,1.000,-90.00,180.00,-22.50,CLOSED,0
670986.092,3,0,0,1.000,1.000,1.000,-90.00,180.00,-22.50,CLOSED,0
670986.096,3,0,0,1.000,1.000,1.000,-90.00,180.00,-22.50,CLOSED,0
670986.100,3,0,0,1.000,1.000,1.000,-90.00,180.00,-22.50,CLOSED,0
670986.104,3,0,0,1.000,1.000,1.000,-90.00,180.00,-22.50,CLOSED,0
670986.110,3,0,0,1.000,1.000,1.000,-90.00,180.00,-22.50,CLOSED,0
670986.115,3,0,0,1.000,1.000,1.000,-90.00,180.00,-22.50,CLOSED,0
670986.119,3,0,0,1.000,1.000,1.000,-90.00,180.00,-22.50,CLOSED,0
670986.124,3,0,0,1.000,1.000,1.000,-90.00,180.00,-22.50,CLOSED,0
670986.128,3,0,0,1.000,1.000,1.000,-90.00,180.00,-22.50,CLOSED,0
670986.132,3,0,0,1.000,1.000,1.000,-90.00,180.00,-22.50,CLOSED,0
670986.136,3,0,0,1.000,1.000,1.000,-90.00,180.00,-22.50,CLOSED,0
670986.141,3,0,0,1.000,1.000,1.000,-90.00,180.00,-22.50,CLOSED,0
670986.145,3,0,0,1.000,1.000,1.000,-90.00,180.00,-22.50,CLOSED,0
670986.149,3,0,0,1.000,1.000,1.000,-90.00,180.00,-22.50,CLOSED,0
670986.153,3,0,0,1.000,1.000,1.000,-90.00,180.00,-22.50,CLOSED,0
670986.157,3,0,0,1.000,1.000,1.000,-90.00,180.00,-22.50,CLOSED,0
670986.161,3,0,0,1.000,1.000,1.000,-90.00,180.00,-22.50,CLOSED,0
670986.164,3,0,0,1.000,1.000,1.000,-90.00,180.00,-22.50,CLOSED,0
670986.168,3,0,0,1.000,1.000,1.000,-90.00,180.00,-22.50,CLOSED,0
670986.172,3,0,0,1.000,1.000,1.000,-90.00,180.00,-22.50,CLOSED,0
670986.177,3,0,0,1.000,1.000,1.000,-90.00,180.00,-22.50,CLOSED,0
670986.180,3,0,0,1.000,1.000,1.000,-90.00,180.00,-22.50,CLOSED,0
670986.184,3,0,0,1.000,1.000,1.000,-90.00,180.00,-22.50,CLOSED,0
670986.189,3,0,0,1.000,1.000,1.000,-90.00,180.00,-22.50,CLOSED,0
670986.194,3,0,0,1.000,1.000,1.000,-90.00,180.00,-22.50,CLOSED,0
670986.198,3,0,0,1.000,1.000,1.000,-90.00,180.00,-22.50,CLOSED,0
670986.202,3,0,0,1.000,1.000,1.000,-90.00,180.00,-22.50,CLOSED,0
670986.206,3,0,0,1.000,1.000,1.000,-90.00,180.00,-22.50,CLOSED,0
670986.210,3,0,0,1.000,1.000,1.000,-90.00,180.00,-22.50,CLOSED,0
670986.213,3,0,0,1.000,1.000,1.000,-90.00,180.00,-22.50,CLOSED,0
670986.217,3,0,0,1.000,1.000,1.000,-90.00,180.00,-22.50,CLOSED,0
670986.223,3,0,0,1.000,1.000,1.000,-90.00,180.00,-22.50,CLOSED,0
670986.226,3,0,0,0.999,1.000,1.000,-90.00,180.00,-22.50,CLOSED,0
670986.230,3,0,0,0.999,1.000,1.000,-90.00,180.00,-22.50,CLOSED,0
670986.237,3,0,0,0.999,1.000,1.000,-90.00,180.00,-22.50,CLOSED,0
670986.241,3,0,0,1.000,1.000,1.000,-90.00,180.00,-22.50,CLOSED,0
670986.245,3,0,0,1.000,1.000,1.000,-90.00,180.00,-22.50,CLOSED,0
670986.250,3,0,0,1.000,1.000,1.000,-90.00,180.00,-22.50,CLOSED,0
670986.254,3,0,0,1.000,1.000,1.000,-90.00,180.00,-22.50,CLOSED,0
670986.258,3,0,0,1.000,1.000,1.000,-90.00,180.00,-22.50,CLOSED,0
670986.263,3,0,0,1.000,1.000,1.000,-90.00,180.00,-22.50,CLOSED,0
670986.270,3,0,0,1.000,1.000,1.000,-90.00,180.00,-22.50,CLOSED,0
670986.278,3,0,0,1.000,1.000,1.000,-90.00,180.00,-22.50,CLOSED,0
670986.282,3,0,0,1.000,1.000,1.000,-90.00,180.00,-22.50,CLOSED,0
670986.286,3,0,0,1.000,1.000,1.000,-90.00,180.00,-22.50,CLOSED,0
670986.291,3,0,0,1.000,1.000,1.000,-90.00,180.00,-22.50,CLOSED,0
670986.297,3,0,0,1.000,1.000,1.000,-90.00,180.00,-22.50,CLOSED,0
670986.301,3,0,0,1.000,1.000,1.000,-90.00,180.00,-22.50,CLOSED,0
670986.305,3,0,0,1.000,1.000,1.000,-90.00,180.00,-22.50,CLOSED,0
670986.310,3,0,0,1.000,1.000,1.000,-90.00,180.00,-22.50,CLOSED,0
670986.313,3,0,0,1.000,1.000,1.000,-90.00,180.00,-22.50,CLOSED,0
670986.317,3,0,0,0.984,1.000,1.000,-90.00,180.00,-22.50,CLOSED,0
670986.322,3,0,0,0.751,1.000,1.000,-90.00,180.00,-22.50,CLOSED,0
670986.325,3,0,0,0.676,1.000,1.000,-90.00,180.00,-22.50,CLOSED,0
670986.329,3,0,0,0.897,1.000,1.000,-90.00,180.00,-22.50,CLOSED,0
670986.333,3,0,0,0.933,1.000,1.000,-90.00,180.00,-22.50,CLOSED,0
670986.337,3,0,0,0.995,1.000,1.000,-90.00,180.00,-22.50,CLOSED,0
670986.344,3,0,0,1.000,1.000,1.000,-90.00,180.00,-22.50,CLOSED,0
670986.352,3,0,0,1.000,1.000,1.000,-90.00,180.00,-22.50,CLOSED,0
670986.356,3,0,0,1.000,1.000,1.000,-90.00,180.00,-22.50,CLOSED,0
670986.360,3,0,0,1.000,1.000,1.000,-90.00,180.00,-22.50,CLOSED,0
670986.364,0,0,0,1.000,1.000,1.000,-90.00,180.00,-22.50,CLOSED,0
670986.368,0,0,0,1.000,1.000,1.000,-90.00,180.00,-22.50,CLOSED,0
670986.373,0,0,0,1.000,1.000,1.000,-90.00,180.00,-22.50,CLOSED,0
670986.378,0,0,0,1.000,1.000,1.000,-90.00,180.00,-22.50,CLOSED,0
670986.382,0,0,0,1.000,1.000,1.000,-90.00,180.00,-22.50,CLOSED,0
670986.386,0,0,0,1.000,1.000,1.000,-90.00,180.00,-22.50,CLOSED,0
670986.391,0,0,0,1.000,1.000,1.000,-90.00,180.00,-22.50,CLOSED,0
670986.395,0,0,0,1.000,1.000,1.000,-90.00,180.00,-22.50,CLOSED,0
670986.399,0,0,0,1.000,1.000,1.000,-90.00,180.00,-22.50,CLOSED,0
670986.404,0,0,0,1.000,1.000,1.000,-90.00,180.00,-22.50,CLOSED,0
670986.412,0,0,0,1.000,1.000,1.000,-90.00,180.00,-22.50,CLOSED,0
670986.416,0,0,0,1.000,1.000,1.000,-90.00,180.00,-22.50,CLOSED,0
670986.422,0,0,0,1.000,1.000,1.000,-90.00,180.00,-22.50,CLOSED,0
670986.426,0,0,0,1.000,1.000,1.000,-90.00,180.00,-22.50,CLOSED,0
670986.430,0,0,0,1.000,1.000,1.000,-90.00,180.00,-22.50,CLOSED,0
670986.434,0,0,0,1.000,1.000,1.000,-90.00,180.00,-22.50,CLOSED,0
670986.440,0,0,0,1.000,1.000,1.000,-90.00,180.00,-22.50,CLOSED,0
670986.448,0,0,0,1.000,1.000,1.000,-90.00,180.00,-22.50,CLOSED,0
670986.454,0,0,0,1.000,1.000,1.000,-90.00,180.00,-22.50,CLOSED,0
670986.459,0,0,0,1.000,1.000,1.000,-90.00,180.00,-22.50,CLOSED,0
670986.463,0,0,0,1.000,1.000,1.000,-90.00,180.00,-22.50,CLOSED,0
670986.467,0,0,0,1.000,1.000,1.000,-90.00,180.00,-22.50,CLOSED,0
670986.472,0,0,0,1.000,1.000,1.000,-90.00,180.00,-22.50,CLOSED,0
670986.475,0,0,0,1.000,1.000,1.000,-90.00,180.00,-22.50,CLOSED,0
670986.479,0,0,0,1.000,1.000,1.000,-90.00,180.00,-22.50,CLOSED,0
670986.484,0,0,0,1.000,1.000,1.000,-90.00,180.00,-22.50,CLOSED,0
670986.489,0,0,0,1.000,1.000,1.000,-90.00,180.00,-22.50,CLOSED,0
670986.493,0,0,0,1.000,1.000,1.000,-90.00,180.00,-22.50,CLOSED,0
670986.497,0,0,0,1.000,1.000,1.000,-90.00,180.00,-22.50,CLOSED,0
670986.501,0,0,0,1.000,1.000,1.000,-90.00,180.00,-22.50,CLOSED,0
670986.506,0,0,0,1.000,1.000,1.000,-90.00,180.00,-22.50,CLOSED,0
670986.510,0,0,0,1.000,1.000,1.000,-90.00,180.00,-22.50,CLOSED,0
670986.514,0,0,0,1.000,1.000,1.000,-90.00,180.00,-22.50,CLOSED,0
670986.517,0,0,0,1.000,1.000,1.000,-90.00,180.00,-22.50,CLOSED,0
670986.522,0,0,0,1.000,1.000,1.000,-90.00,180.00,-22.50,CLOSED,0
670986.525,0,0,0,1.000,1.000,1.000,-90.00,180.00,-22.50,CLOSED,0
670986.529,0,0,0,1.000,1.000,1.000,-90.00,180.00,-22.50,CLOSED,0
670986.533,0,0,0,1.000,1.000,1.000,-90.00,180.00,-22.50,CLOSED,0
670986.537,0,0,0,1.000,1.000,1.000,-90.00,180.00,-22.50,CLOSED,0
670986.541,0,0,0,1.000,1.000,1.000,-90.00,180.00,-22.50,CLOSED,0
670986.551,0,0,0,1.000,1.000,1.000,-90.00,180.00,-22.50,CLOSED,0
670986.556,0,0,0,1.000,1.000,1.000,-90.00,180.00,-22.50,CLOSED,0
670986.563,0,0,0,1.000,1.000,1.000,-90.00,180.00,-22.50,CLOSED,0
670986.568,0,0,0,1.000,1.000,1.000,-90.00,180.00,-22.50,CLOSED,0
670986.573,0,0,0,1.000,1.000,1.000,-90.00,180.00,-22.50,CLOSED,0
670986.581,0,0,0,1.000,1.000,1.000,-90.00,180.00,-22.50,CLOSED,0
670986.585,0,0,0,1.000,1.000,1.000,-90.00,180.00,-22.50,CLOSED,0
670986.590,0,0,0,1.000,1.000,1.000,-90.00,180.00,-22.50,CLOSED,0
670986.594,0,0,0,1.000,1.000,1.000,-90.00,180.00,-22.50,CLOSED,0
670986.597,0,0,0,1.000,1.000,1.000,-90.00,180.00,-22.50,CLOSED,0
670986.601,0,0,0,1.000,1.000,1.000,-90.00,180.00,-22.50,CLOSED,0
670986.606,0,0,0,1.000,1.000,1.000,-90.00,180.00,-22.50,CLOSED,0
670986.610,0,0,0,1.000,1.000,1.000,-90.00,180.00,-22.50,CLOSED,0
670986.614,0,0,0,1.000,1.000,1.000,-90.00,180.00,-22.50,CLOSED,0
670986.618,0,0,0,1.000,1.000,1.000,-90.00,180.00,-22.50,CLOSED,0
670986.622,0,0,0,1.000,1.000,1.000,-90.00,180.00,-22.50,CLOSED,0
670986.626,0,0,0,1.000,1.000,1.000,-90.00,180.00,-22.50,CLOSED,0
670986.630,0,0,0,1.000,1.000,1.000,-90.00,180.00,-22.50,CLOSED,0
670986.634,0,0,0,1.000,1.000,1.000,-90.00,180.00,-22.50,CLOSED,0
670986.639,0,0,0,1.000,1.000,1.000,-90.00,180.00,-22.50,CLOSED,0
670986.643,0,0,0,1.000,1.000,1.000,-90.00,180.00,-22.50,CLOSED,0
670986.647,0,0,0,1.000,1.000,1.000,-90.00,180.00,-22.50,CLOSED,0
670986.651,0,0,0,1.000,1.000,1.000,-90.00,180.00,-22.50,CLOSED,0
670986.656,0,0,0,1.000,1.000,1.000,-90.00,180.00,-22.50,CLOSED,0
670986.664,0,0,0,1.000,1.000,1.000,-90.00,180.00,-22.50,CLOSED,0
670986.671,0,0,0,1.000,1.000,1.000,-90.00,180.00,-22.50,CLOSED,0
670986.679,0,0,0,1.000,1.000,1.000,-90.00,180.00,-22.50,CLOSED,0
670986.685,0,0,0,1.000,1.000,1.000,-90.00,180.00,-22.50,CLOSED,0
670986.693,0,0,0,1.000,1.000,1.000,-90.00,180.00,-22.50,CLOSED,0
670986.698,0,0,0,1.000,1.000,1.000,-90.00,180.00,-22.50,CLOSED,0
670986.704,0,0,0,1.000,1.000,1.000,-90.00,180.00,-22.50,CLOSED,0
670986.709,0,0,0,1.000,1.000,1.000,-90.00,180.00,-22.50,CLOSED,0
670986.712,0,0,0,1.000,1.000,1.000,-90.00,180.00,-22.50,CLOSED,0
670986.716,0,0,0,1.000,1.000,1.000,-90.00,180.00,-22.50,CLOSED,0
670986.720,0,0,0,1.000,1.000,1.000,-90.00,180.00,-22.50,CLOSED,0
670986.728,0,0,0,1.000,1.000,1.000,-90.00,180.00,-22.50,CLOSED,0
670986.734,0,0,0,1.000,1.000,1.000,-90.00,180.00,-22.50,CLOSED,0
670986.740,0,0,0,1.000,1.000,1.000,-90.00,180.00,-22.50,CLOSED,0
670986.747,0,0,0,1.000,1.000,1.000,-90.00,180.00,-22.50,CLOSED,0
670986.750,0,0,0,1.000,1.000,1.000,-90.00,180.00,-22.50,CLOSED,0
670986.755,0,0,0,1.000,1.000,1.000,-90.00,180.00,-22.50,CLOSED,0
670986.759,0,0,0,1.000,1.000,1.000,-90.00,180.00,-22.50,CLOSED,0
670986.763,0,0,0,1.000,1.000,1.000,-90.00,180.00,-22.50,CLOSED,0
670986.770,0,0,0,1.000,1.000,1.000,-90.00,180.00,-22.50,CLOSED,0
670986.781,0,0,0,1.000,1.000,1.000,-90.00,180.00,-22.50,CLOSED,0
670986.787,0,0,0,1.000,1.000,1.000,-90.00,180.00,-22.50,CLOSED,0
670986.793,0,0,0,1.000,1.000,1.000,-90.00,180.00,-22.50,CLOSED,0
670986.797,0,0,0,1.000,1.000,1.000,-90.00,180.00,-22.50,CLOSED,0
670986.805,0,0,0,1.000,1.000,1.000,-90.00,180.00,-22.50,CLOSED,0
670986.810,0,0,0,1.000,1.000,1.000,-90.00,180.00,-22.50,CLOSED,0
670986.814,0,0,0,1.000,1.000,1.000,-90.00,180.00,-22.50,CLOSED,0
670986.818,0,0,0,1.000,1.000,1.000,-90.00,180.00,-22.50,CLOSED,0
670986.823,0,0,0,1.000,1.000,1.000,-90.00,180.00,-22.50,CLOSED,0
670986.831,0,0,0,1.000,1.000,1.000,-90.00,180.00,-22.50,CLOSED,0
670986.838,0,0,0,1.000,1.000,1.000,-90.00,180.00,-22.50,CLOSED,0
670986.847,0,0,0,1.000,1.000,1.000,-90.00,180.00,-22.50,CLOSED,0
670986.851,0,0,0,1.000,1.000,1.000,-90.00,180.00,-22.50,CLOSED,0
670986.856,0,0,0,1.000,1.000,1.000,-90.00,180.00,-22.50,CLOSED,0
670986.860,0,0,0,1.000,1.000,1.000,-90.00,180.00,-22.50,CLOSED,0
670986.864,0,0,0,1.000,1.000,1.000,-90.00,180.00,-22.50,CLOSED,0
670986.868,0,0,0,1.000,1.000,1.000,-90.00,180.00,-22.50,CLOSED,0
670986.877,0,0,0,1.000,1.000,1.000,-90.00,180.00,-22.50,CLOSED,0
670986.885,0,0,0,1.000,1.000,1.000,-90.00,180.00,-22.50,CLOSED,0
670986.891,0,0,0,1.000,1.000,1.000,-90.00,180.00,-22.50,CLOSED,0
670986.895,0,0,0,1.000,1.000,1.000,-90.00,180.00,-22.50,CLOSED,0
670986.899,0,0,0,1.000,1.000,1.000,-90.00,180.00,-22.50,CLOSED,0
670986.905,0,0,0,1.000,1.000,1.000,-90.00,180.00,-22.50,CLOSED,0
670986.909,0,0,0,1.000,1.000,1.000,-90.00,180.00,-22.50,CLOSED,0
670986.913,0,0,0,1.000,1.000,1.000,-90.00,180.00,-22.50,CLOSED,0
670986.917,0,0,0,1.000,1.000,1.000,-90.00,180.00,-22.50,CLOSED,0
670986.922,0,0,0,1.000,1.000,1.000,-90.00,180.00,-22.50,CLOSED,0
670986.926,0,0,0,1.000,1.000,1.000,-90.00,180.00,-22.50,CLOSED,0
670986.931,0,0,0,1.000,1.000,1.000,-90.00,180.00,-22.50,CLOSED,0
670986.938,0,0,0,1.000,1.000,1.000,-90.00,180.00,-22.50,CLOSED,0
670986.944,0,0,0,1.000,1.000,1.000,-90.00,180.00,-22.50,CLOSED,0
670986.950,0,0,0,1.000,1.000,1.000,-90.00,180.00,-22.50,CLOSED,0
670986.960,0,0,0,1.000,1.000,1.000,-90.00,180.00,-22.50,CLOSED,0
670986.965,0,0,0,1.000,1.000,1.000,-90.00,180.00,-22.50,CLOSED,0
670986.969,0,0,0,1.000,1.000,1.000,-90.00,180.00,-22.50,CLOSED,0
670986.977,0,0,0,1.000,1.000,1.000,-90.00,180.00,-22.50,CLOSED,0
670986.981,0,0,0,1.000,1.000,1.000,-90.00,180.00,-22.50,CLOSED,0
670986.987,0,0,0,1.000,1.000,1.000,-90.00,180.00,-22.50,CLOSED,0
670986.995,0,0,0,1.000,1.000,1.000,-90.00,180.00,-22.50,CLOSED,0
670987.003,0,0,0,1.000,1.000,1.000,-90.00,180.00,-22.50,CLOSED,0
670987.012,0,0,0,1.000,1.000,1.000,-90.00,180.00,-22.50,CLOSED,0
670987.017,0,0,0,1.000,1.000,1.000,-90.00,180.00,-22.50,CLOSED,0
670987.022,0,0,0,1.000,1.000,1.000,-90.00,180.00,-22.50,CLOSED,0
670987.026,0,0,0,1.000,1.000,1.000,-90.00,180.00,-22.50,CLOSED,0
670987.030,0,0,0,1.000,1.000,1.000,-90.00,180.00,-22.50,CLOSED,0
670987.034,0,0,0,1.000,1.000,1.000,-90.00,180.00,-22.50,CLOSED,0
670987.039,0,0,0,1.000,1.000,1.000,-90.00,180.00,-22.50,CLOSED,0
670987.045,0,0,0,1.000,1.000,1.000,-90.00,180.00,-22.50,CLOSED,0
670987.050,0,0,0,1.000,1.000,1.000,-90.00,180.00,-22.50,CLOSED,0
670987.054,0,0,0,1.000,1.000,1.000,-90.00,180.00,-22.50,CLOSED,0
670987.059,0,0,0,1.000,1.000,1.000,-90.00,180.00,-22.50,CLOSED,0
670987.063,0,0,0,1.000,1.000,1.000,-90.00,180.00,-22.50,CLOSED,0
670987.067,0,0,0,1.000,1.000,1.000,-90.00,180.00,-22.50,CLOSED,0
670987.072,0,0,0,1.000,1.000,1.000,-90.00,180.00,-22.50,CLOSED,0
670987.076,0,0,0,1.000,1.000,1.000,-90.00,180.00,-22.50,CLOSED,0
670987.080,0,0,0,1.000,1.000,1.000,-90.00,180.00,-22.50,CLOSED,0
670987.085,0,0,0,1.000,1.000,1.000,-90.00,180.00,-22.50,CLOSED,0
670987.092,0,0,0,1.000,1.000,1.000,-90.00,180.00,-22.50,CLOSED,0
670987.097,0,0,0,1.000,1.000,1.000,-90.00,180.00,-22.50,CLOSED,0
670987.102,0,0,0,1.000,1.000,1.000,-90.00,180.00,-22.50,CLOSED,0
670987.108,0,0,0,1.000,1.000,1.000,-90.00,180.00,-22.50,CLOSED,0
670987.113,0,0,0,1.000,1.000,1.000,-90.00,180.00,-22.50,CLOSED,0
670987.117,0,0,0,1.000,1.000,1.000,-90.00,180.00,-22.50,CLOSED,0
670987.122,0,0,0,1.000,1.000,1.000,-90.00,180.00,-22.50,CLOSED,0
670987.126,0,0,0,1.000,1.000,1.000,-90.00,180.00,-22.50,CLOSED,0
670987.131,0,0,0,1.000,1.000,1.000,-90.00,180.00,-22.50,CLOSED,0
670987.136,0,0,0,1.000,1.000,1.000,-90.00,180.00,-22.50,CLOSED,0
670987.145,0,0,0,1.000,1.000,1.000,-90.00,180.00,-22.50,CLOSED,0
670987.152,0,0,0,1.000,1.000,1.000,-90.00,180.00,-22.50,CLOSED,0
670987.160,0,0,0,1.000,1.000,1.000,-90.00,180.00,-22.50,CLOSED,0
670987.168,0,0,0,1.000,1.000,1.000,-90.00,180.00,-22.50,CLOSED,0
670987.175,0,0,0,1.000,1.000,1.000,-90.00,180.00,-22.50,CLOSED,0
670987.183,0,0,0,1.000,1.000,1.000,-90.00,180.00,-22.50,CLOSED,0
670987.190,0,0,0,1.000,1.000,1.000,-90.00,180.00,-22.50,CLOSED,0
670987.198,0,0,0,1.000,1.000,1.000,-90.00,180.00,-22.50,CLOSED,0
670987.207,0,0,0,1.000,1.000,1.000,-90.00,180.00,-22.50,CLOSED,0
670987.215,0,0,0,1.000,1.000,1.000,-90.00,180.00,-22.50,CLOSED,0
670987.222,0,0,0,1.000,1.000,1.000,-90.00,180.00,-22.50,CLOSED,0
670987.225,0,0,0,1.000,1.000,1.000,-90.00,180.00,-22.50,CLOSED,0
670987.230,0,0,0,1.000,1.000,1.000,-90.00,180.00,-22.50,CLOSED,0
670987.233,0,0,0,1.000,1.000,1.000,-90.00,180.00,-22.50,CLOSED,0
670987.237,0,0,0,1.000,1.000,1.000,-90.00,180.00,-22.50,CLOSED,0
670987.241,0,0,0,1.000,1.000,1.000,-90.00,180.00,-22.50,CLOSED,0
670987.245,0,0,0,1.000,1.000,1.000,-90.00,180.00,-22.50,CLOSED,0
670987.250,0,0,0,1.000,1.000,1.000,-90.00,180.00,-22.50,CLOSED,0
670987.255,0,0,0,1.000,1.000,1.000,-90.00,180.00,-22.50,CLOSED,0
670987.259,0,0,0,1.000,1.000,1.000,-90.00,180.00,-22.50,CLOSED,0
670987.263,0,0,0,1.000,1.000,1.000,-90.00,180.00,-22.50,CLOSED,0
670987.267,0,0,0,1.000,1.000,1.000,-90.00,180.00,-22.50,CLOSED,0
670987.271,0,0,0,1.000,1.000,1.000,-90.00,180.00,-22.50,CLOSED,0
670987.275,0,0,0,1.000,1.000,1.000,-90.00,180.00,-22.50,CLOSED,0
670987.279,0,0,0,1.000,1.000,1.000,-90.00,180.00,-22.50,CLOSED,0
670987.283,0,0,0,1.000,1.000,1.000,-90.00,180.00,-22.50,CLOSED,0
670987.288,0,0,0,1.000,1.000,1.000,-90.00,180.00,-22.50,CLOSED,0
670987.292,0,0,0,1.000,1.000,1.000,-90.00,180.00,-22.50,CLOSED,0
670987.300,0,0,0,1.000,1.000,1.000,-90.00,180.00,-22.50,CLOSED,0
670987.305,0,0,0,1.000,1.000,1.000,-90.00,180.00,-22.50,CLOSED,0
670987.309,0,0,0,1.000,1.000,1.000,-90.00,180.00,-22.50,CLOSED,0
670987.313,0,0,0,1.000,1.000,1.000,-90.00,180.00,-22.50,CLOSED,0
670987.317,0,0,0,1.000,1.000,1.000,-90.00,180.00,-22.50,CLOSED,0
670987.326,0,0,0,1.000,1.000,1.000,-90.00,180.00,-22.50,CLOSED,0
670987.331,0,0,0,1.000,1.000,1.000,-90.00,180.00,-22.50,CLOSED,0
670987.335,0,0,0,1.000,1.000,1.000,-90.00,180.00,-22.50,CLOSED,0
670987.340,0,0,0,1.000,1.000,1.000,-90.00,180.00,-22.50,CLOSED,0
670987.343,0,0,0,1.000,1.000,1.000,-90.00,180.00,-22.50,CLOSED,0
670987.348,0,0,0,1.000,1.000,1.000,-90.00,180.00,-22.50,CLOSED,0
670987.352,0,0,0,1.000,1.000,1.000,-90.00,180.00,-22.50,CLOSED,0
670987.357,0,0,0,1.000,1.000,1.000,-90.00,180.00,-22.50,CLOSED,0
670987.365,0,0,0,1.000,1.000,1.000,-90.00,180.00,-22.50,CLOSED,0
670987.373,0,0,0,1.000,1.000,1.000,-90.00,180.00,-22.50,CLOSED,0
670987.381,0,0,0,1.000,1.000,1.000,-90.00,180.00,-22.50,CLOSED,0
670987.389,0,0,0,1.000,1.000,1.000,-90.00,180.00,-22.50,CLOSED,0
670987.396,0,0,0,1.000,1.000,1.000,-90.00,180.00,-22.50,CLOSED,0
670987.402,0,0,0,1.000,1.000,1.000,-90.00,180.00,-22.50,CLOSED,0
670987.408,0,0,0,1.000,1.000,1.000,-90.00,180.00,-22.50,CLOSED,0
670987.412,0,0,0,1.000,1.000,1.000,-90.00,180.00,-22.50,CLOSED,0
670987.416,0,0,0,1.000,1.000,1.000,-90.00,180.00,-22.50,CLOSED,0
670987.422,0,0,0,1.000,1.000,1.000,-90.00,180.00,-22.50,CLOSED,0
670987.426,0,0,0,1.000,1.000,1.000,-90.00,180.00,-22.50,CLOSED,0
670987.431,0,0,0,1.000,1.000,1.000,-90.00,180.00,-22.50,CLOSED,0
670987.435,0,0,0,1.000,1.000,1.000,-90.00,180.00,-22.50,CLOSED,0
670987.443,0,0,0,1.000,1.000,1.000,-90.00,180.00,-22.50,CLOSED,0
670987.452,0,0,0,1.000,1.000,1.000,-90.00,180.00,-22.50,CLOSED,0
670987.460,0,0,0,1.000,1.000,1.000,-90.00,180.00,-22.50,CLOSED,0
670987.469,0,0,0,1.000,1.000,1.000,-90.00,180.00,-22.50,CLOSED,0
670987.477,0,0,0,1.000,1.000,1.000,-90.00,180.00,-22.50,CLOSED,0
670987.485,0,0,0,1.000,1.000,1.000,-90.00,180.00,-22.50,CLOSED,0
670987.493,0,0,0,1.000,1.000,1.000,-90.00,180.00,-22.50,CLOSED,0
670987.501,0,0,0,1.000,1.000,1.000,-90.00,180.00,-22.50,CLOSED,0
670987.509,0,0,0,1.000,1.000,1.000,-90.00,180.00,-22.50,CLOSED,0
670987.518,0,0,0,1.000,1.000,1.000,-90.00,180.00,-22.50,CLOSED,0
670987.524,0,0,0,1.000,1.000,1.000,-90.00,180.00,-22.50,CLOSED,0
670987.528,0,0,0,1.000,1.000,1.000,-90.00,180.00,-22.50,CLOSED,0
670987.536,0,0,0,1.000,1.000,1.000,-90.00,180.00,-22.50,CLOSED,0
670987.544,0,0,0,1.000,1.000,1.000,-90.00,180.00,-22.50,CLOSED,0
670987.548,0,0,0,1.000,1.000,1.000,-90.00,180.00,-22.50,CLOSED,0
670987.553,0,0,0,1.000,1.000,1.000,-90.00,180.00,-22.50,CLOSED,0
670987.557,0,0,0,1.000,1.000,1.000,-90.00,180.00,-22.50,CLOSED,0
670987.561,0,0,0,1.000,1.000,1.000,-90.00,180.00,-22.50,CLOSED,0
670987.565,0,0,0,1.000,1.000,1.000,-90.00,180.00,-22.50,CLOSED,0
670987.569,0,0,0,1.000,1.000,1.000,-90.00,180.00,-22.50,CLOSED,0
670987.573,0,0,0,1.000,1.000,1.000,-90.00,180.00,-22.50,CLOSED,0
670987.582,0,0,0,1.000,1.000,1.000,-90.00,180.00,-22.50,CLOSED,0
670987.588,0,0,0,1.000,1.000,1.000,-90.00,180.00,-22.50,CLOSED,0
670987.592,0,0,0,1.000,1.000,1.000,-90.00,180.00,-22.50,CLOSED,0
670987.595,0,0,0,1.000,1.000,1.000,-90.00,180.00,-22.50,CLOSED,0
670987.599,0,0,0,1.000,1.000,1.000,-90.00,180.00,-22.50,CLOSED,0
670987.604,0,0,0,1.000,1.000,1.000,-90.00,180.00,-22.50,CLOSED,0
670987.609,0,0,0,1.000,1.000,1.000,-90.00,180.00,-22.50,CLOSED,0
670987.613,0,0,0,1.000,1.000,1.000,-90.00,180.00,-22.50,CLOSED,0
670987.617,0,0,0,1.000,1.000,1.000,-90.00,180.00,-22.50,CLOSED,0
670987.621,0,0,0,1.000,1.000,1.000,-90.00,180.00,-22.50,CLOSED,0
670987.629,0,0,0,1.000,1.000,1.000,-90.00,180.00,-22.50,CLOSED,0
670987.634,0,0,0,1.000,1.000,1.000,-90.00,180.00,-22.50,CLOSED,0
670987.639,0,0,0,1.000,1.000,1.000,-90.00,180.00,-22.50,CLOSED,0
670987.643,0,0,0,1.000,1.000,1.000,-90.00,180.00,-22.50,CLOSED,0
670987.647,0,0,0,1.000,1.000,1.000,-90.00,180.00,-22.50,CLOSED,0
670987.651,0,0,0,1.000,1.000,1.000,-90.00,180.00,-22.50,CLOSED,0
670987.656,0,0,0,1.000,1.000,1.000,-90.00,180.00,-22.50,CLOSED,0
670987.659,0,0,0,1.000,1.000,1.000,-90.00,180.00,-22.50,CLOSED,0
670987.663,0,0,0,1.000,1.000,1.000,-90.00,180.00,-22.50,CLOSED,0
670987.667,0,0,0,1.000,1.000,1.000,-90.00,180.00,-22.50,CLOSED,0
670987.673,0,0,0,1.000,1.000,1.000,-90.00,180.00,-22.50,CLOSED,0
670987.677,0,0,0,1.000,1.000,1.000,-90.00,180.00,-22.50,CLOSED,0
670987.681,0,0,0,1.000,1.000,1.000,-90.00,180.00,-22.50,CLOSED,0
670987.685,0,0,0,1.000,1.000,1.000,-90.00,180.00,-22.50,CLOSED,0
670987.689,0,0,0,1.000,1.000,1.000,-90.00,180.00,-22.50,CLOSED,0
670987.694,0,0,0,1.000,1.000,1.000,-90.00,180.00,-22.50,CLOSED,0
670987.698,0,0,0,1.000,1.000,1.000,-90.00,180.00,-22.50,CLOSED,0
670987.702,0,0,0,1.000,1.000,1.000,-90.00,180.00,-22.50,CLOSED,0
670987.707,0,0,0,1.000,1.000,1.000,-90.00,180.00,-22.50,CLOSED,0
670987.711,0,0,0,1.000,1.000,1.000,-90.00,180.00,-22.50,CLOSED,0
670987.716,0,0,0,1.000,1.000,1.000,-90.00,180.00,-22.50,CLOSED,0
670987.720,0,0,0,1.000,1.000,1.000,-90.00,180.00,-22.50,CLOSED,0
670987.725,0,0,0,1.000,1.000,1.000,-90.00,180.00,-22.50,CLOSED,0
670987.729,0,0,0,1.000,1.000,1.000,-90.00,180.00,-22.50,CLOSED,0
670987.733,0,0,0,1.000,1.000,1.000,-90.00,180.00,-22.50,CLOSED,0
670987.738,0,0,0,1.000,1.000,1.000,-90.00,180.00,-22.50,CLOSED,0
670987.746,0,0,0,1.000,1.000,1.000,-90.00,180.00,-22.50,CLOSED,0
670987.752,0,0,0,1.000,1.000,1.000,-90.00,180.00,-22.50,CLOSED,0
670987.760,0,0,0,1.000,1.000,1.000,-90.00,180.00,-22.50,CLOSED,0
670987.767,0,0,0,1.000,1.000,1.000,-90.00,180.00,-22.50,CLOSED,0
670987.776,0,0,0,1.000,1.000,1.000,-90.00,180.00,-22.50,CLOSED,0
670987.783,0,0,0,1.000,1.000,1.000,-90.00,180.00,-22.50,CLOSED,0
670987.789,0,0,0,0.996,1.000,1.000,-90.00,180.00,-22.50,CLOSED,0
670987.797,0,0,0,0.993,1.000,1.000,-90.00,180.00,-22.50,CLOSED,0
670987.805,0,0,0,1.000,1.000,1.000,-90.00,180.00,-22.50,CLOSED,0
670987.814,0,0,0,1.000,1.000,1.000,-90.00,180.00,-22.50,CLOSED,0
670987.821,0,0,0,1.000,1.000,1.000,-90.00,180.00,-22.50,CLOSED,0
670987.825,0,0,0,1.000,1.000,1.000,-90.00,180.00,-22.50,CLOSED,0
670987.829,0,0,0,1.000,1.000,1.000,-90.00,180.00,-22.50,CLOSED,0
670987.833,0,0,0,1.000,1.000,1.000,-90.00,180.00,-22.50,CLOSED,0
670987.837,0,0,0,0.990,1.000,1.000,-90.00,180.00,-22.50,CLOSED,0
670987.842,0,0,0,0.999,1.000,1.000,-90.00,180.00,-22.50,CLOSED,0
670987.846,0,0,0,0.991,1.000,1.000,-90.00,180.00,-22.50,CLOSED,0
670987.850,0,0,0,0.992,1.000,1.000,-90.00,180.00,-22.50,CLOSED,0
670987.854,0,0,0,0.998,1.000,1.000,-90.00,180.00,-22.50,CLOSED,0
670987.858,0,0,0,1.000,1.000,1.000,-90.00,180.00,-22.50,CLOSED,0
670987.864,0,0,0,1.000,1.000,1.000,-90.00,180.00,-22.50,CLOSED,0
670987.869,0,0,0,1.000,1.000,1.000,-90.00,180.00,-22.50,CLOSED,0
670987.874,0,0,0,1.000,1.000,1.000,-90.00,180.00,-22.50,CLOSED,0
670987.883,0,0,0,1.000,1.000,1.000,-90.00,180.00,-22.50,CLOSED,0
670987.889,0,0,0,1.000,1.000,1.000,-90.00,180.00,-22.50,CLOSED,0
670987.893,0,0,0,1.000,1.000,1.000,-90.00,180.00,-22.50,CLOSED,0
670987.897,0,0,0,1.000,1.000,1.000,-90.00,180.00,-22.50,CLOSED,0
670987.901,0,0,0,1.000,1.000,1.000,-90.00,180.00,-22.50,CLOSED,0
670987.905,0,0,0,1.000,1.000,1.000,-90.00,180.00,-22.50,CLOSED,0
670987.909,0,0,0,1.000,1.000,1.000,-90.00,180.00,-22.50,CLOSED,0
670987.913,0,0,0,1.000,1.000,1.000,-90.00,180.00,-22.50,CLOSED,0
670987.917,0,0,0,1.000,1.000,1.000,-90.00,180.00,-22.50,CLOSED,0
670987.924,0,0,0,1.000,1.000,1.000,-90.00,180.00,-22.50,CLOSED,0
670987.928,0,0,0,1.000,1.000,1.000,-90.00,180.00,-22.50,CLOSED,0
670987.932,0,0,0,1.000,1.000,1.000,-90.00,180.00,-22.50,CLOSED,0
670987.937,0,0,0,1.000,1.000,1.000,-90.00,180.00,-22.50,CLOSED,0
670987.941,0,0,0,1.000,1.000,1.000,-90.00,180.00,-22.50,CLOSED,0
670987.945,0,0,0,1.000,1.000,1.000,-90.00,180.00,-22.50,CLOSED,0
670987.949,0,0,0,1.000,1.000,1.000,-90.00,180.00,-22.50,CLOSED,0
670987.955,0,0,0,1.000,1.000,1.000,-90.00,180.00,-22.50,CLOSED,0
670987.959,0,0,0,1.000,1.000,1.000,-90.00,180.00,-22.50,CLOSED,0
670987.963,0,0,0,1.000,1.000,1.000,-90.00,180.00,-22.50,CLOSED,0
670987.967,0,0,0,1.000,1.000,1.000,-90.00,180.00,-22.50,CLOSED,0
670987.971,0,0,0,1.000,1.000,1.000,-90.00,180.00,-22.50,CLOSED,0
670987.975,0,0,0,1.000,1.000,1.000,-90.00,180.00,-22.50,CLOSED,0
670987.979,0,0,0,1.000,1.000,1.000,-90.00,180.00,-22.50,CLOSED,0
670987.983,0,0,0,1.000,1.000,1.000,-90.00,180.00,-22.50,CLOSED,0
670987.987,0,0,0,1.000,1.000,1.000,-90.00,180.00,-22.50,CLOSED,0
670987.991,0,0,0,1.000,1.000,1.000,-90.00,180.00,-22.50,CLOSED,0
670987.996,0,0,0,1.000,1.000,1.000,-90.00,180.00,-22.50,CLOSED,0
670988.000,0,0,0,1.000,1.000,1.000,-90.00,180.00,-22.50,CLOSED,0
670988.005,0,0,0,1.000,1.000,1.000,-90.00,180.00,-22.50,CLOSED,0
670988.009,0,0,0,1.000,1.000,1.000,-90.00,180.00,-22.50,CLOSED,0
670988.013,0,0,0,1.000,1.000,1.000,-90.00,180.00,-22.50,CLOSED,0
670988.017,0,0,0,1.000,1.000,1.000,-90.00,180.00,-22.50,CLOSED,0
670988.022,0,0,0,1.000,1.000,1.000,-90.00,180.00,-22.50,CLOSED,0
670988.026,0,0,0,1.000,1.000,1.000,-90.00,180.00,-22.50,CLOSED,0
670988.030,0,0,0,1.000,1.000,1.000,-90.00,180.00,-22.50,CLOSED,0
670988.034,0,0,0,1.000,1.000,1.000,-90.00,180.00,-22.50,CLOSED,0
670988.040,0,0,0,1.000,1.000,1.000,-90.00,180.00,-22.50,CLOSED,0
670988.043,0,0,0,1.000,1.000,1.000,-90.00,180.00,-22.50,CLOSED,0
670988.047,0,0,0,1.000,1.000,1.000,-90.00,180.00,-22.50,CLOSED,0
670988.051,0,0,0,1.000,1.000,1.000,-90.00,180.00,-22.50,CLOSED,0
670988.056,0,0,0,1.000,1.000,1.000,-90.00,180.00,-22.50,CLOSED,0
670988.060,0,0,0,1.000,1.000,1.000,-90.00,180.00,-22.50,CLOSED,0
670988.064,0,0,0,1.000,1.000,1.000,-90.00,180.00,-22.50,CLOSED,0
670988.067,0,0,0,1.000,1.000,1.000,-90.00,180.00,-22.50,CLOSED,0
670988.071,0,0,0,1.000,1.000,1.000,-90.00,180.00,-22.50,CLOSED,0
670988.075,0,0,0,1.000,1.000,1.000,-90.00,180.00,-22.50,CLOSED,0
670988.079,0,0,0,1.000,1.000,1.000,-90.00,180.00,-22.50,CLOSED,0
670988.083,0,0,0,1.000,1.000,1.000,-90.00,180.00,-22.50,CLOSED,0
670988.088,0,0,0,1.000,1.000,1.000,-90.00,180.00,-22.50,CLOSED,0
670988.092,0,0,0,1.000,1.000,1.000,-90.00,180.00,-22.50,CLOSED,0
670988.096,0,0,0,1.000,1.000,1.000,-90.00,180.00,-22.50,CLOSED,0
670988.102,0,0,0,1.000,1.000,1.000,-90.00,180.00,-22.50,CLOSED,0
670988.109,0,0,0,1.000,1.000,1.000,-90.00,180.00,-22.50,CLOSED,0
670988.115,0,0,0,1.000,1.000,1.000,-90.00,180.00,-22.50,CLOSED,0
670988.120,0,0,0,1.000,1.000,1.000,-90.00,180.00,-22.50,CLOSED,0
670988.126,0,0,0,1.000,1.000,1.000,-90.00,180.00,-22.50,CLOSED,0
670988.130,0,0,0,1.000,1.000,1.000,-90.00,180.00,-22.50,CLOSED,0
670988.135,0,0,0,1.000,1.000,1.000,-90.00,180.00,-22.50,CLOSED,0
670988.140,0,0,0,1.000,1.000,1.000,-90.00,180.00,-22.50,CLOSED,0
670988.144,0,0,0,1.000,1.000,1.000,-90.00,180.00,-22.50,CLOSED,0
670988.148,0,0,0,1.000,1.000,1.000,-90.00,180.00,-22.50,CLOSED,0
670988.152,0,0,0,1.000,1.000,1.000,-90.00,180.00,-22.50,CLOSED,0
670988.156,0,0,0,1.000,1.000,1.000,-90.00,180.00,-22.50,CLOSED,0
670988.160,0,0,0,1.000,1.000,1.000,-90.00,180.00,-22.50,CLOSED,0
670988.164,0,0,0,1.000,1.000,1.000,-90.00,180.00,-22.50,CLOSED,0
670988.168,0,0,0,1.000,1.000,1.000,-90.00,180.00,-22.50,CLOSED,0
670988.172,0,0,0,1.000,1.000,1.000,-90.00,180.00,-22.50,CLOSED,0
670988.176,0,0,0,1.000,1.000,1.000,-90.00,180.00,-22.50,CLOSED,0
670988.180,0,0,0,1.000,1.000,1.000,-90.00,180.00,-22.50,CLOSED,0
670988.184,0,0,0,1.000,1.000,1.000,-90.00,180.00,-22.50,CLOSED,0
670988.192,0,0,0,1.000,1.000,1.000,-90.00,180.00,-22.50,CLOSED,0
670988.196,0,0,0,1.000,1.000,1.000,-90.00,180.00,-22.50,CLOSED,0
670988.200,0,0,0,1.000,1.000,1.000,-90.00,180.00,-22.50,CLOSED,0
670988.206,0,0,0,1.000,1.000,1.000,-90.00,180.00,-22.50,CLOSED,0
670988.212,0,0,0,1.000,1.000,1.000,-90.00,180.00,-22.50,CLOSED,0
670988.217,0,0,0,1.000,1.000,1.000,-90.00,180.00,-22.50,CLOSED,0
670988.221,0,0,0,1.000,1.000,1.000,-90.00,180.00,-22.50,CLOSED,0
670988.229,0,0,0,1.000,1.000,1.000,-90.00,180.00,-22.50,CLOSED,0
670988.236,0,0,0,1.000,1.000,1.000,-90.00,180.00,-22.50,CLOSED,0
670988.241,0,0,0,1.000,1.000,1.000,-90.00,180.00,-22.50,CLOSED,0
670988.245,0,0,0,1.000,1.000,1.000,-90.00,180.00,-22.50,CLOSED,0
670988.249,0,0,0,1.000,1.000,1.000,-90.00,180.00,-22.50,CLOSED,0
670988.253,0,0,0,1.000,1.000,1.000,-90.00,180.00,-22.50,CLOSED,0
670988.257,0,0,0,1.000,1.000,1.000,-90.00,180.00,-22.50,CLOSED,0
670988.261,0,0,0,1.000,1.000,1.000,-90.00,180.00,-22.50,CLOSED,0
670988.267,0,0,0,1.000,1.000,1.000,-90.00,180.00,-22.50,CLOSED,0
670988.273,0,0,0,1.000,1.000,1.000,-90.00,180.00,-22.50,CLOSED,0
670988.282,0,0,0,1.000,1.000,1.000,-90.00,180.00,-22.50,CLOSED,0
670988.287,0,0,0,1.000,1.000,1.000,-90.00,180.00,-22.50,CLOSED,0
670988.291,0,0,0,1.000,1.000,1.000,-90.00,180.00,-22.50,CLOSED,0
670988.299,0,0,0,1.000,1.000,1.000,-90.00,180.00,-22.50,CLOSED,0
670988.304,0,0,0,1.000,1.000,1.000,-90.00,180.00,-22.50,CLOSED,0
670988.312,0,0,0,1.000,1.000,1.000,-90.00,180.00,-22.50,CLOSED,0
670988.316,0,0,0,1.000,1.000,1.000,-90.00,180.00,-22.50,CLOSED,0
670988.321,0,0,0,1.000,1.000,1.000,-90.00,180.00,-22.50,CLOSED,0
670988.324,0,0,0,1.000,1.000,1.000,-90.00,180.00,-22.50,CLOSED,0
670988.329,0,0,0,1.000,1.000,1.000,-90.00,180.00,-22.50,CLOSED,0
670988.333,0,0,0,1.000,1.000,1.000,-90.00,180.00,-22.50,CLOSED,0
670988.337,0,0,0,1.000,1.000,1.000,-90.00,180.00,-22.50,CLOSED,0
670988.346,0,0,0,1.000,1.000,1.000,-90.00,180.00,-22.50,CLOSED,0
670988.350,0,0,0,1.000,1.000,1.000,-90.00,180.00,-22.50,CLOSED,0
670988.354,0,0,0,1.000,1.000,1.000,-90.00,180.00,-22.50,CLOSED,0
670988.358,0,0,0,1.000,1.000,1.000,-90.00,180.00,-22.50,CLOSED,0
670988.362,0,0,0,1.000,1.000,1.000,-90.00,180.00,-22.50,CLOSED,0
670988.367,0,0,0,1.000,1.000,1.000,-90.00,180.00,-22.50,CLOSED,0
670988.373,0,0,0,1.000,1.000,1.000,-90.00,180.00,-22.50,CLOSED,0
670988.380,0,0,0,1.000,1.000,1.000,-90.00,180.00,-22.50,CLOSED,0
670988.388,0,0,0,1.000,1.000,1.000,-90.00,180.00,-22.50,CLOSED,0
670988.394,0,0,0,1.000,1.000,1.000,-90.00,180.00,-22.50,CLOSED,0
670988.400,0,0,0,1.000,1.000,1.000,-90.00,180.00,-22.50,CLOSED,0
670988.406,0,0,0,1.000,1.000,1.000,-90.00,180.00,-22.50,CLOSED,0
670988.410,0,0,0,1.000,1.000,1.000,-90.00,180.00,-22.50,CLOSED,0
670988.415,0,0,0,1.000,1.000,1.000,-90.00,180.00,-22.50,CLOSED,0
670988.420,0,0,0,1.000,1.000,1.000,-90.00,180.00,-22.50,CLOSED,0
670988.424,0,0,0,1.000,1.000,1.000,-90.00,180.00,-22.50,CLOSED,0
670988.433,0,0,0,1.000,1.000,1.000,-90.00,180.00,-22.50,CLOSED,0
670988.438,0,0,0,1.000,1.000,1.000,-90.00,180.00,-22.50,CLOSED,0
670988.446,0,0,0,1.000,1.000,1.000,-90.00,180.00,-22.50,CLOSED,0
670988.449,0,0,0,1.000,1.000,1.000,-90.00,180.00,-22.50,CLOSED,0
670988.453,0,0,0,1.000,1.000,1.000,-90.00,180.00,-22.50,CLOSED,0
670988.457,0,0,0,1.000,1.000,1.000,-90.00,180.00,-22.50,CLOSED,0
670988.462,0,0,0,1.000,1.000,1.000,-90.00,180.00,-22.50,CLOSED,0
670988.465,0,0,0,1.000,1.000,1.000,-90.00,180.00,-22.50,CLOSED,0
670988.470,0,0,0,1.000,1.000,1.000,-90.00,180.00,-22.50,CLOSED,0
670988.474,0,0,0,1.000,0.999,1.000,-90.00,180.00,-22.50,CLOSED,0
670988.480,0,0,0,1.000,0.998,1.000,-90.00,180.00,-22.50,CLOSED,0
670988.485,0,0,0,1.000,0.994,1.000,-90.00,180.00,-22.50,CLOSED,0
670988.490,0,0,0,1.000,0.973,1.000,-90.00,180.00,-22.50,CLOSED,0
670988.495,0,0,0,1.000,0.706,1.000,-90.00,180.00,-22.50,CLOSED,0
670988.499,0,0,0,1.000,0.835,1.000,-90.00,180.00,-22.50,CLOSED,0
670988.505,0,0,0,1.000,0.947,1.000,-90.00,180.00,-22.50,CLOSED,0
670988.510,0,0,0,1.000,0.962,1.000,-90.00,180.00,-22.50,CLOSED,0
670988.515,0,0,0,1.000,0.954,1.000,-90.00,180.00,-22.50,CLOSED,0
670988.519,0,0,0,1.000,0.886,1.000,-90.00,180.00,-22.50,CLOSED,0
670988.525,0,0,0,1.000,0.583,1.000,-90.00,180.00,-22.50,CLOSED,0
670988.529,0,0,0,1.000,0.745,1.000,-90.00,180.00,-22.50,CLOSED,0
670988.533,0,0,0,1.000,0.909,1.000,-90.00,180.00,-22.50,CLOSED,0
670988.538,0,0,0,1.000,0.961,0.999,-90.00,180.00,-22.50,CLOSED,0
670988.542,0,0,0,1.000,0.986,0.998,-90.00,180.00,-22.50,CLOSED,0
670988.548,0,0,0,1.000,0.994,0.997,-90.00,180.00,-22.50,CLOSED,0
670988.552,0,0,0,1.000,0.996,0.996,-90.00,180.00,-22.50,CLOSED,0
670988.558,0,0,0,1.000,0.997,0.995,-90.00,180.00,-22.50,CLOSED,0
670988.565,0,0,0,1.000,0.998,0.995,-90.00,180.00,-22.50,CLOSED,0
670988.572,0,0,0,1.000,0.998,0.994,-90.00,180.00,-22.50,CLOSED,0
670988.579,0,0,0,1.000,0.998,0.994,-90.00,180.00,-22.50,CLOSED,0
670988.585,0,0,0,1.000,0.999,0.992,-90.00,180.00,-22.50,CLOSED,0
670988.592,0,0,0,1.000,0.999,0.987,-90.00,180.00,-22.50,CLOSED,0
670988.602,0,0,0,1.000,0.999,0.979,-90.00,180.00,-22.50,CLOSED,0
670988.607,0,0,0,1.000,0.999,0.969,-90.00,180.00,-22.50,CLOSED,0
670988.611,0,0,0,1.000,1.000,0.968,-90.00,180.00,-22.50,CLOSED,0
670988.616,0,0,0,1.000,1.000,0.970,-90.00,180.00,-22.50,CLOSED,0
670988.620,0,0,0,1.000,1.000,0.976,-90.00,180.00,-22.50,CLOSED,0
670988.625,0,0,0,1.000,1.000,0.979,-90.00,180.00,-22.50,CLOSED,0
670988.629,0,0,0,1.000,0.999,0.980,-90.00,180.00,-22.50,CLOSED,0
670988.632,0,0,0,1.000,0.999,0.982,-90.00,180.00,-22.50,CLOSED,0
670988.637,0,0,0,1.000,0.998,0.983,-90.00,180.00,-22.50,CLOSED,0
670988.641,0,0,0,1.000,0.994,0.979,-90.00,180.00,-22.50,CLOSED,0
670988.645,0,0,0,1.000,0.980,0.973,-90.00,180.00,-22.50,CLOSED,0
670988.649,0,0,0,1.000,0.943,0.951,-90.00,180.00,-22.50,CLOSED,0
670988.653,0,0,0,1.000,0.888,0.924,-90.00,180.00,-22.50,CLOSED,0
670988.658,0,0,0,1.000,0.865,0.897,-90.00,180.00,-22.50,CLOSED,0
670988.666,0,0,0,1.000,0.869,0.887,-90.00,180.00,-22.50,CLOSED,0
670988.675,0,0,0,1.000,0.854,0.901,-90.00,180.00,-22.50,CLOSED,0
670988.682,0,0,0,1.000,0.831,0.929,-90.00,180.00,-22.50,CLOSED,0
670988.691,0,0,0,1.000,0.825,0.960,-90.00,180.00,-22.50,CLOSED,0
670988.700,0,0,0,1.000,0.859,0.977,-90.00,180.00,-22.50,CLOSED,0
670988.710,0,0,0,1.000,0.906,0.988,-90.00,180.00,-22.50,CLOSED,0
670988.713,0,0,0,1.000,0.942,0.992,-90.00,180.00,-22.50,CLOSED,0
670988.717,0,0,0,1.000,0.969,0.995,-90.00,180.00,-22.50,CLOSED,0
670988.722,0,0,0,1.000,0.981,0.997,-90.00,180.00,-22.50,CLOSED,0
670988.726,0,0,0,1.000,0.989,0.998,-90.00,180.00,-22.50,CLOSED,0
670988.730,0,0,0,1.000,0.992,0.998,-90.00,180.00,-22.50,CLOSED,0
670988.736,0,0,0,1.000,0.995,0.998,-90.00,180.00,-22.50,CLOSED,0
670988.742,0,0,0,1.000,0.996,0.998,-90.00,180.00,-22.50,CLOSED,0
670988.746,0,0,0,1.000,0.997,0.998,-90.00,180.00,-22.50,CLOSED,0
670988.751,0,0,0,1.000,0.996,0.997,-90.00,180.00,-22.50,CLOSED,0
670988.757,0,0,0,1.000,0.995,0.996,-90.00,180.00,-22.50,CLOSED,0
670988.762,0,0,0,1.000,0.989,0.994,-90.00,180.00,-22.50,CLOSED,0
670988.766,0,0,0,1.000,0.962,0.989,-90.00,180.00,-22.50,CLOSED,0
670988.773,0,0,0,1.000,0.843,0.982,-90.00,180.00,-22.50,CLOSED,0
670988.777,0,0,0,1.000,0.502,0.973,-90.00,180.00,-22.50,CLOSED,0
670988.782,0,0,0,1.000,0.804,0.970,-90.00,180.00,-22.50,CLOSED,0
670988.790,0,0,0,1.000,0.892,0.972,-90.00,180.00,-22.50,CLOSED,0
670988.798,0,0,0,1.000,0.892,0.979,-90.00,180.00,-22.50,CLOSED,0
670988.803,0,0,0,1.000,0.818,0.984,-90.00,180.00,-22.50,CLOSED,0
670988.811,0,0,0,1.000,0.657,0.989,-90.00,180.00,-22.50,CLOSED,0
670988.819,0,0,0,1.000,0.515,0.990,-90.00,180.00,-22.50,CLOSED,0
670988.824,0,0,0,1.000,0.650,0.990,-90.00,180.00,-22.50,CLOSED,0
670988.830,0,0,0,1.000,0.754,0.989,-90.00,180.00,-22.50,CLOSED,0
670988.837,0,0,0,1.000,0.770,0.988,-90.00,180.00,-22.50,CLOSED,0
670988.843,0,0,0,1.000,0.735,0.985,-90.00,180.00,-22.50,CLOSED,0
670988.851,0,0,0,1.000,0.698,0.983,-90.00,180.00,-22.50,CLOSED,0
670988.859,0,0,0,1.000,0.645,0.984,-90.00,180.00,-22.50,CLOSED,0
670988.866,0,0,0,1.000,0.608,0.985,-90.00,180.00,-22.50,CLOSED,0
670988.872,0,0,0,1.000,0.618,0.989,-90.00,180.00,-22.50,CLOSED,0
670988.876,0,0,0,1.000,0.718,0.990,-90.00,180.00,-22.50,CLOSED,0
670988.880,0,0,0,1.000,0.775,0.992,-90.00,180.00,-22.50,CLOSED,0
670988.884,0,0,0,1.000,0.844,0.990,-90.00,180.00,-22.50,CLOSED,0
670988.889,0,0,0,1.000,0.898,0.991,-90.00,180.00,-22.50,CLOSED,0
670988.893,0,0,0,1.000,0.915,0.989,-90.00,180.00,-22.50,CLOSED,0
670988.898,0,0,0,1.000,0.913,0.986,-90.00,180.00,-22.50,CLOSED,0
670988.903,0,0,0,1.000,0.908,0.983,-90.00,180.00,-22.50,CLOSED,0
670988.909,0,0,0,1.000,0.883,0.972,-90.00,180.00,-22.50,CLOSED,0
670988.914,0,0,0,1.000,0.875,0.955,-90.00,180.00,-22.50,CLOSED,0
670988.919,0,0,0,1.000,0.937,0.949,-90.00,180.00,-22.50,CLOSED,0
670988.925,0,0,0,1.000,0.978,0.950,-90.00,180.00,-22.50,CLOSED,0
670988.930,0,0,0,1.000,0.992,0.962,-90.00,180.00,-22.50,CLOSED,0
670988.935,0,0,0,1.000,0.996,0.970,-90.00,180.00,-22.50,CLOSED,0
670988.940,0,0,0,1.000,0.997,0.974,-90.00,180.00,-22.50,CLOSED,0
670988.945,0,0,0,1.000,0.998,0.978,-90.00,180.00,-22.50,CLOSED,0
670988.949,0,0,0,1.000,0.998,0.979,-90.00,180.00,-22.50,CLOSED,0
670988.954,0,0,0,1.000,0.997,0.977,-90.00,180.00,-22.50,CLOSED,0
670988.958,0,0,0,1.000,0.994,0.975,-90.00,180.00,-22.50,CLOSED,0
670988.962,0,0,0,1.000,0.987,0.974,-90.00,180.00,-22.50,CLOSED,0
670988.966,0,0,0,1.000,0.955,0.970,-90.00,180.00,-22.50,CLOSED,0
670988.971,0,0,0,1.000,0.852,0.962,-90.00,180.00,-22.50,CLOSED,0
670988.975,0,0,0,1.000,0.690,0.959,-90.00,180.00,-22.50,CLOSED,0
670988.979,0,0,0,1.000,0.531,0.957,-90.00,180.00,-22.50,CLOSED,0
670988.983,0,0,0,1.000,0.596,0.954,-90.00,180.00,-22.50,CLOSED,0
670988.988,0,0,0,1.000,0.509,0.960,-90.00,180.00,-22.50,CLOSED,0
670988.996,0,0,0,1.000,0.617,0.963,-90.00,180.00,-22.50,CLOSED,0
670989.004,0,0,0,1.000,0.725,0.964,-90.00,180.00,-22.50,CLOSED,0
670989.007,0,0,0,1.000,0.760,0.968,-90.00,180.00,-22.50,CLOSED,0
670989.011,0,0,0,1.000,0.755,0.971,-90.00,180.00,-22.50,CLOSED,0
670989.015,0,0,0,1.000,0.711,0.976,-90.00,180.00,-22.50,CLOSED,0
670989.019,0,0,0,1.000,0.637,0.980,-90.00,180.00,-22.50,CLOSED,0
670989.029,0,0,0,1.000,0.555,0.980,-90.00,180.00,-22.50,CLOSED,0
670989.033,0,0,0,1.000,0.519,0.983,-90.00,180.00,-22.50,CLOSED,0
670989.037,0,0,0,1.000,0.550,0.983,-90.00,180.00,-22.50,CLOSED,0
670989.041,0,0,0,1.000,0.720,0.981,-90.00,180.00,-22.50,CLOSED,0
670989.045,0,0,0,1.000,0.863,0.972,-90.00,180.00,-22.50,CLOSED,0
670989.049,0,0,0,1.000,0.956,0.953,-90.00,180.00,-22.50,CLOSED,0
670989.054,0,0,0,1.000,0.980,0.932,-90.00,180.00,-22.50,CLOSED,0
670989.058,0,0,0,1.000,0.987,0.903,-90.00,180.00,-22.50,CLOSED,0
670989.062,0,0,0,1.000,0.988,0.892,-90.00,180.00,-22.50,CLOSED,0
670989.067,0,0,0,1.000,0.986,0.895,-90.00,180.00,-22.50,CLOSED,0
670989.074,0,0,0,1.000,0.977,0.924,-90.00,180.00,-22.50,CLOSED,0
670989.080,0,0,0,1.000,0.950,0.968,-90.00,180.00,-22.50,CLOSED,0
670989.085,0,0,0,1.000,0.926,0.987,-90.00,180.00,-22.50,CLOSED,0
670989.091,0,0,0,1.000,0.941,0.996,-90.00,180.00,-22.50,CLOSED,0
670989.096,0,0,0,1.000,0.975,0.999,-90.00,180.00,-22.50,CLOSED,0
670989.100,0,0,0,1.000,0.987,0.999,-90.00,180.00,-22.50,CLOSED,0
670989.104,0,0,0,1.000,0.995,0.999,-90.00,180.00,-22.50,CLOSED,0
670989.108,0,0,0,1.000,0.999,0.999,-90.00,180.00,-22.50,CLOSED,0
670989.113,0,0,0,1.000,1.000,0.999,-90.00,180.00,-22.50,CLOSED,0
670989.117,0,0,0,1.000,1.000,0.999,-90.00,180.00,-22.50,CLOSED,0
670989.122,0,0,0,1.000,1.000,0.999,-90.00,180.00,-22.50,CLOSED,0
670989.126,0,0,0,1.000,1.000,1.000,-90.00,180.00,-22.50,CLOSED,0
670989.130,0,0,0,1.000,1.000,1.000,-90.00,180.00,-22.50,CLOSED,0
670989.135,0,0,0,1.000,1.000,1.000,-90.00,180.00,-22.50,CLOSED,0
670989.141,0,0,0,1.000,1.000,1.000,-90.00,180.00,-22.50,CLOSED,0
670989.145,0,0,0,1.000,0.998,1.000,-90.00,180.00,-22.50,CLOSED,0
670989.150,0,0,0,0.999,0.998,1.000,-90.00,180.00,-22.50,CLOSED,0
670989.155,0,0,0,0.999,0.998,1.000,-90.00,180.00,-22.50,CLOSED,0
670989.160,0,0,0,0.999,0.999,1.000,-90.00,180.00,-22.50,CLOSED,0
670989.164,0,0,0,1.000,1.000,1.000,-90.00,180.00,-22.50,CLOSED,0
670989.168,0,0,0,1.000,1.000,1.000,-90.00,180.00,-22.50,CLOSED,0
670989.173,0,0,0,1.000,1.000,1.000,-90.00,180.00,-22.50,CLOSED,0
670989.177,0,0,0,1.000,1.000,1.000,-90.00,180.00,-22.50,CLOSED,0
670989.180,0,0,0,1.000,1.000,1.000,-90.00,180.00,-22.50,CLOSED,0
670989.184,0,0,0,1.000,1.000,1.000,-90.00,180.00,-22.50,CLOSED,0
670989.189,0,0,0,1.000,1.000,1.000,-90.00,180.00,-22.50,CLOSED,0
670989.192,0,0,0,1.000,1.000,1.000,-90.00,180.00,-22.50,CLOSED,0
670989.196,0,0,0,1.000,1.000,1.000,-90.00,180.00,-22.50,CLOSED,0
670989.200,0,0,0,1.000,1.000,1.000,-90.00,180.00,-22.50,CLOSED,0
670989.205,0,0,0,1.000,1.000,1.000,-90.00,180.00,-22.50,CLOSED,0
670989.212,0,0,0,1.000,1.000,1.000,-90.00,180.00,-22.50,CLOSED,0
670989.216,0,0,0,1.000,1.000,1.000,-90.00,180.00,-22.50,CLOSED,0
670989.220,0,0,0,1.000,1.000,1.000,-90.00,180.00,-22.50,CLOSED,0
670989.229,0,0,0,1.000,1.000,1.000,-90.00,180.00,-22.50,CLOSED,0
670989.234,0,0,0,1.000,1.000,1.000,-90.00,180.00,-22.50,CLOSED,0
670989.242,0,0,0,1.000,1.000,1.000,-90.00,180.00,-22.50,CLOSED,0
670989.246,0,0,0,1.000,1.000,1.000,-90.00,180.00,-22.50,CLOSED,0
670989.251,0,0,0,1.000,1.000,1.000,-90.00,180.00,-22.50,CLOSED,0
670989.257,0,0,0,1.000,1.000,1.000,-90.00,180.00,-22.50,CLOSED,0
670989.264,0,0,0,1.000,1.000,1.000,-90.00,180.00,-22.50,CLOSED,0
670989.272,0,0,0,1.000,1.000,1.000,-90.00,180.00,-22.50,CLOSED,0
670989.278,0,0,0,1.000,1.000,1.000,-90.00,180.00,-22.50,CLOSED,0
670989.283,0,0,0,1.000,1.000,1.000,-90.00,180.00,-22.50,CLOSED,0
670989.288,0,0,0,1.000,1.000,1.000,-90.00,180.00,-22.50,CLOSED,0
670989.293,0,0,0,1.000,1.000,1.000,-90.00,180.00,-22.50,CLOSED,0
670989.297,0,0,0,1.000,1.000,1.000,-90.00,180.00,-22.50,CLOSED,0
670989.302,0,0,0,1.000,1.000,1.000,-90.00,180.00,-22.50,CLOSED,0
670989.307,0,0,0,1.000,1.000,1.000,-90.00,180.00,-22.50,CLOSED,0
670989.311,0,0,0,1.000,1.000,1.000,-90.00,180.00,-22.50,CLOSED,0
670989.316,0,0,0,1.000,1.000,1.000,-90.00,180.00,-22.50,CLOSED,0
670989.320,0,0,0,1.000,1.000,1.000,-90.00,180.00,-22.50,CLOSED,0
670989.328,0,0,0,1.000,1.000,1.000,-90.00,180.00,-22.50,CLOSED,0
670989.335,0,0,0,1.000,1.000,1.000,-90.00,180.00,-22.50,CLOSED,0
670989.344,0,0,0,1.000,1.000,1.000,-90.00,180.00,-22.50,CLOSED,0
670989.353,0,0,0,1.000,1.000,1.000,-90.00,180.00,-22.50,CLOSED,0
670989.361,0,0,0,1.000,1.000,1.000,-90.00,180.00,-22.50,CLOSED,0
670989.368,0,0,0,1.000,1.000,1.000,-90.00,180.00,-22.50,CLOSED,0
670989.376,0,0,0,1.000,1.000,1.000,-90.00,180.00,-22.50,CLOSED,0
670989.385,0,0,0,1.000,1.000,1.000,-90.00,180.00,-22.50,CLOSED,0
670989.392,0,0,0,1.000,1.000,1.000,-90.00,180.00,-22.50,CLOSED,0
670989.400,0,0,0,1.000,1.000,1.000,-90.00,180.00,-22.50,CLOSED,0
670989.409,0,0,0,1.000,1.000,1.000,-90.00,180.00,-22.50,CLOSED,0
670989.415,0,0,0,1.000,1.000,1.000,-90.00,180.00,-22.50,CLOSED,0
670989.421,0,0,0,1.000,1.000,1.000,-90.00,180.00,-22.50,CLOSED,0
670989.425,0,0,0,1.000,1.000,1.000,-90.00,180.00,-22.50,CLOSED,0
670989.429,0,0,0,1.000,1.000,1.000,-90.00,180.00,-22.50,CLOSED,0
670989.433,0,0,0,1.000,1.000,1.000,-90.00,180.00,-22.50,CLOSED,0
670989.440,0,0,0,1.000,1.000,1.000,-90.00,180.00,-22.50,CLOSED,0
670989.444,0,0,0,1.000,1.000,1.000,-90.00,180.00,-22.50,CLOSED,0
670989.448,0,0,0,1.000,1.000,1.000,-90.00,180.00,-22.50,CLOSED,0
670989.451,0,0,0,1.000,1.000,1.000,-90.00,180.00,-22.50,CLOSED,0
670989.456,0,0,0,1.000,1.000,1.000,-90.00,180.00,-22.50,CLOSED,0
670989.460,0,0,0,1.000,1.000,1.000,-90.00,180.00,-22.50,CLOSED,0
670989.464,0,0,0,1.000,1.000,1.000,-90.00,180.00,-22.50,CLOSED,0
670989.468,0,0,0,1.000,1.000,1.000,-90.00,180.00,-22.50,CLOSED,0
670989.472,0,0,0,1.000,1.000,1.000,-90.00,180.00,-22.50,CLOSED,0
670989.476,0,0,0,1.000,1.000,1.000,-90.00,180.00,-22.50,CLOSED,0
670989.480,0,0,0,1.000,1.000,1.000,-90.00,180.00,-22.50,CLOSED,0
670989.484,0,0,0,1.000,1.000,1.000,-90.00,180.00,-22.50,CLOSED,0
670989.488,0,0,0,1.000,1.000,1.000,-90.00,180.00,-22.50,CLOSED,0
670989.492,0,0,0,1.000,1.000,1.000,-90.00,180.00,-22.50,CLOSED,0
670989.496,0,0,0,1.000,1.000,1.000,-90.00,180.00,-22.50,CLOSED,0
670989.500,0,0,0,1.000,1.000,1.000,-90.00,180.00,-22.50,CLOSED,0
670989.506,0,0,0,1.000,1.000,1.000,-90.00,180.00,-22.50,CLOSED,0
670989.510,0,0,0,1.000,1.000,1.000,-90.00,180.00,-22.50,CLOSED,0
670989.514,0,0,0,1.000,1.000,1.000,-90.00,180.00,-22.50,CLOSED,0
670989.518,0,0,0,1.000,1.000,1.000,-90.00,180.00,-22.50,CLOSED,0
670989.523,0,0,0,1.000,1.000,1.000,-90.00,180.00,-22.50,CLOSED,0
670989.526,0,0,0,1.000,1.000,1.000,-90.00,180.00,-22.50,CLOSED,0
670989.533,0,0,0,1.000,1.000,1.000,-90.00,180.00,-22.50,CLOSED,0
670989.539,0,0,0,1.000,1.000,1.000,-90.00,180.00,-22.50,CLOSED,0
670989.548,0,0,0,1.000,1.000,1.000,-90.00,180.00,-22.50,CLOSED,0
670989.553,0,0,0,1.000,1.000,1.000,-90.00,180.00,-22.50,CLOSED,0
670989.562,0,0,0,1.000,1.000,1.000,-90.00,180.00,-22.50,CLOSED,0
670989.566,0,0,0,1.000,1.000,1.000,-90.00,180.00,-22.50,CLOSED,0
670989.570,0,0,0,1.000,1.000,1.000,-90.00,180.00,-22.50,CLOSED,0
670989.574,0,0,0,1.000,1.000,1.000,-90.00,180.00,-22.50,CLOSED,0
670989.580,0,0,0,1.000,1.000,1.000,-90.00,180.00,-22.50,CLOSED,0
670989.591,0,0,0,1.000,1.000,1.000,-90.00,180.00,-22.50,CLOSED,0
670989.600,0,0,0,1.000,1.000,1.000,-90.00,180.00,-22.50,CLOSED,0
670989.607,0,0,0,1.000,1.000,1.000,-90.00,180.00,-22.50,CLOSED,0
670989.615,0,0,0,1.000,1.000,1.000,-90.00,180.00,-22.50,CLOSED,0
670989.620,0,0,0,1.000,1.000,1.000,-90.00,180.00,-22.50,CLOSED,0
670989.628,0,0,0,1.000,1.000,1.000,-90.00,180.00,-22.50,CLOSED,0
670989.633,0,0,0,1.000,1.000,1.000,-90.00,180.00,-22.50,CLOSED,0
670989.640,0,0,0,1.000,1.000,1.000,-90.00,180.00,-22.50,CLOSED,0
670989.646,0,0,0,1.000,1.000,1.000,-90.00,180.00,-22.50,CLOSED,0
670989.651,0,0,0,1.000,1.000,1.000,-90.00,180.00,-22.50,CLOSED,0
670989.658,0,0,0,1.000,1.000,1.000,-90.00,180.00,-22.50,CLOSED,0
670989.665,0,0,0,1.000,1.000,1.000,-90.00,180.00,-22.50,CLOSED,0
670989.674,0,0,0,1.000,1.000,1.000,-90.00,180.00,-22.50,CLOSED,0
670989.685,0,0,0,1.000,1.000,1.000,-90.00,180.00,-22.50,CLOSED,0
670989.696,0,0,0,1.000,1.000,1.000,-90.00,180.00,-22.50,CLOSED,0
670989.704,0,0,0,1.000,1.000,1.000,-90.00,180.00,-22.50,CLOSED,0
670989.708,0,0,0,1.000,1.000,1.000,-90.00,180.00,-22.50,CLOSED,0
670989.712,0,0,0,1.000,1.000,1.000,-90.00,180.00,-22.50,CLOSED,0
670989.716,0,0,0,1.000,1.000,1.000,-90.00,180.00,-22.50,CLOSED,0
670989.727,0,0,0,1.000,1.000,1.000,-90.00,180.00,-22.50,CLOSED,0
670989.732,0,0,0,1.000,1.000,1.000,-90.00,180.00,-22.50,CLOSED,0
670989.736,0,0,0,1.000,1.000,1.000,-90.00,180.00,-22.50,CLOSED,0
670989.744,0,0,0,1.000,1.000,1.000,-90.00,180.00,-22.50,CLOSED,0
670989.748,0,0,0,1.000,1.000,1.000,-90.00,180.00,-22.50,CLOSED,0
670989.753,0,0,0,1.000,1.000,1.000,-90.00,180.00,-22.50,CLOSED,0
670989.761,0,0,0,1.000,1.000,1.000,-90.00,180.00,-22.50,CLOSED,0
670989.770,0,0,0,1.000,1.000,1.000,-90.00,180.00,-22.50,CLOSED,0
670989.776,0,0,0,1.000,1.000,1.000,-90.00,180.00,-22.50,CLOSED,0
670989.785,0,0,0,1.000,1.000,1.000,-90.00,180.00,-22.50,CLOSED,0
670989.794,0,0,0,1.000,1.000,1.000,-90.00,180.00,-22.50,CLOSED,0
670989.803,0,0,0,1.000,1.000,1.000,-90.00,180.00,-22.50,CLOSED,0
670989.814,0,0,0,1.000,1.000,1.000,-90.00,180.00,-22.50,CLOSED,0
670989.825,0,0,0,1.000,1.000,1.000,-90.00,180.00,-22.50,CLOSED,0
670989.836,0,0,0,1.000,1.000,1.000,-90.00,180.00,-22.50,CLOSED,0
670989.848,0,0,0,1.000,1.000,1.000,-90.00,180.00,-22.50,CLOSED,0
670989.858,0,0,0,1.000,1.000,1.000,-90.00,180.00,-22.50,CLOSED,0
670989.867,0,0,0,1.000,1.000,1.000,-90.00,180.00,-22.50,CLOSED,0
670989.876,0,0,0,1.000,1.000,1.000,-90.00,180.00,-22.50,CLOSED,0
670989.884,0,0,0,1.000,1.000,1.000,-90.00,180.00,-22.50,CLOSED,0
670989.893,0,0,0,1.000,1.000,1.000,-90.00,180.00,-22.50,CLOSED,0
670989.902,0,0,0,1.000,1.000,1.000,-90.00,180.00,-22.50,CLOSED,0
670989.910,0,0,0,1.000,1.000,1.000,-90.00,180.00,-22.50,CLOSED,0
670989.919,0,0,0,1.000,1.000,1.000,-90.00,180.00,-22.50,CLOSED,0
670989.927,0,0,0,1.000,1.000,1.000,-90.00,180.00,-22.50,CLOSED,0
670989.935,0,0,0,1.000,1.000,1.000,-90.00,180.00,-22.50,CLOSED,0
670989.941,0,0,0,1.000,1.000,1.000,-90.00,180.00,-22.50,CLOSED,0
670989.945,0,0,0,1.000,1.000,1.000,-90.00,180.00,-22.50,CLOSED,0
670989.949,0,0,0,1.000,1.000,1.000,-90.00,180.00,-22.50,CLOSED,0
670989.954,0,0,0,1.000,1.000,1.000,-90.00,180.00,-22.50,CLOSED,0
670989.957,0,0,0,1.000,1.000,1.000,-90.00,180.00,-22.50,CLOSED,0
670989.961,0,0,0,1.000,1.000,1.000,-90.00,180.00,-22.50,CLOSED,0
670989.969,0,0,0,1.000,1.000,1.000,-90.00,180.00,-22.50,CLOSED,0
670989.975,0,0,0,1.000,1.000,1.000,-90.00,180.00,-22.50,CLOSED,0
670989.983,0,0,0,1.000,1.000,1.000,-90.00,180.00,-22.50,CLOSED,0
670989.989,0,0,0,1.000,1.000,1.000,-90.00,180.00,-22.50,CLOSED,0
670989.997,0,0,0,1.000,1.000,1.000,-90.00,180.00,-22.50,CLOSED,0
670990.005,0,0,0,1.000,1.000,1.000,-90.00,180.00,-22.50,CLOSED,0
670990.009,0,0,0,1.000,1.000,1.000,-90.00,180.00,-22.50,CLOSED,0
670990.014,0,0,0,1.000,1.000,1.000,-90.00,180.00,-22.50,CLOSED,0
670990.018,0,0,0,1.000,1.000,1.000,-90.00,180.00,-22.50,CLOSED,0
670990.026,0,0,0,1.000,1.000,1.000,-90.00,180.00,-22.50,CLOSED,0
670990.030,0,0,0,0.999,1.000,1.000,-90.00,180.00,-22.50,CLOSED,0
670990.034,0,0,0,0.992,1.000,1.000,-90.00,180.00,-22.50,CLOSED,0
670990.039,0,0,0,0.991,1.000,1.000,-90.00,180.00,-22.50,CLOSED,0
670990.043,0,0,0,0.997,1.000,1.000,-90.00,180.00,-22.50,CLOSED,0
670990.047,0,0,0,0.992,1.000,1.000,-90.00,180.00,-22.50,CLOSED,0
670990.051,0,0,0,0.989,1.000,1.000,-90.00,180.00,-22.50,CLOSED,0
670990.056,0,0,0,0.995,1.000,1.000,-90.00,180.00,-22.50,CLOSED,0
670990.059,0,0,0,0.987,1.000,1.000,-90.00,180.00,-22.50,CLOSED,0
670990.063,0,0,0,0.986,1.000,1.000,-90.00,180.00,-22.50,CLOSED,0
670990.068,0,0,0,0.989,1.000,1.000,-90.00,180.00,-22.50,CLOSED,0
670990.072,0,0,0,0.998,0.999,1.000,-90.00,180.00,-22.50,CLOSED,0
670990.076,0,0,0,0.999,0.950,1.000,-90.00,180.00,-22.50,CLOSED,0
670990.081,0,0,0,0.999,0.765,1.000,-90.00,180.00,-22.50,CLOSED,0
670990.092,0,0,0,0.995,0.989,1.000,-90.00,180.00,-22.50,CLOSED,0
670990.096,0,0,0,0.985,0.999,1.000,-90.00,180.00,-22.50,CLOSED,0
670990.101,0,0,0,0.989,1.000,1.000,-90.00,180.00,-22.50,CLOSED,0
670990.105,0,0,0,0.994,1.000,1.000,-90.00,180.00,-22.50,CLOSED,0
670990.109,0,0,0,0.997,1.000,1.000,-90.00,180.00,-22.50,CLOSED,0
670990.113,0,0,0,0.999,1.000,1.000,-90.00,180.00,-22.50,CLOSED,0
670990.121,0,0,0,0.999,1.000,1.000,-90.00,180.00,-22.50,CLOSED,0
670990.125,0,0,0,0.996,1.000,1.000,-90.00,180.00,-22.50,CLOSED,0
670990.129,0,0,0,0.999,1.000,1.000,-90.00,180.00,-22.50,CLOSED,0
670990.133,0,0,0,1.000,1.000,1.000,-90.00,180.00,-22.50,CLOSED,0
670990.139,0,0,0,1.000,1.000,1.000,-90.00,180.00,-22.50,CLOSED,0
670990.142,0,0,0,1.000,1.000,0.999,-90.00,180.00,-22.50,CLOSED,0
670990.146,0,0,0,1.000,1.000,0.998,-90.00,180.00,-22.50,CLOSED,0
670990.150,0,0,0,1.000,1.000,0.996,-90.00,180.00,-22.50,CLOSED,0
670990.154,0,0,0,1.000,1.000,0.994,-90.00,180.00,-22.50,CLOSED,0
670990.157,0,0,0,1.000,1.000,0.993,-90.00,180.00,-22.50,CLOSED,0
670990.161,0,0,0,1.000,1.000,0.992,-90.00,180.00,-22.50,CLOSED,0
670990.165,0,0,0,1.000,1.000,0.990,-90.00,180.00,-22.50,CLOSED,0
670990.169,0,0,0,1.000,1.000,0.988,-90.00,180.00,-22.50,CLOSED,0
670990.174,0,0,0,1.000,1.000,0.987,-90.00,180.00,-22.50,CLOSED,0
670990.180,0,0,0,1.000,1.000,0.986,-90.00,180.00,-22.50,CLOSED,0
670990.185,0,0,0,1.000,1.000,0.986,-90.00,180.00,-22.50,CLOSED,0
670990.192,0,0,0,1.000,1.000,0.989,-90.00,180.00,-22.50,CLOSED,0
670990.196,0,0,0,1.000,1.000,0.991,-90.00,180.00,-22.50,CLOSED,0
670990.200,0,0,0,1.000,1.000,0.993,-90.00,180.00,-22.50,CLOSED,0
670990.204,0,0,0,1.000,0.999,0.994,-90.00,180.00,-22.50,CLOSED,0
670990.209,0,0,0,1.000,0.999,0.994,-90.00,180.00,-22.50,CLOSED,0
670990.213,0,0,0,1.000,0.999,0.994,-90.00,180.00,-22.50,CLOSED,0
670990.217,0,0,0,1.000,0.999,0.994,-90.00,180.00,-22.50,CLOSED,0
670990.222,0,0,0,1.000,0.999,0.993,-90.00,180.00,-22.50,CLOSED,0
670990.225,0,0,0,1.000,0.999,0.993,-90.00,180.00,-22.50,CLOSED,0
670990.229,0,0,0,1.000,0.999,0.991,-90.00,180.00,-22.50,CLOSED,0
670990.233,0,0,0,1.000,0.999,0.989,-90.00,180.00,-22.50,CLOSED,0
670990.237,0,0,0,1.000,1.000,0.989,-90.00,180.00,-22.50,CLOSED,0
670990.241,0,0,0,1.000,1.000,0.988,-90.00,180.00,-22.50,CLOSED,0
670990.245,0,0,0,1.000,1.000,0.991,-90.00,180.00,-22.50,CLOSED,0
670990.249,0,0,0,1.000,1.000,0.995,-90.00,180.00,-22.50,CLOSED,0
670990.254,0,0,0,1.000,1.000,0.997,-90.00,180.00,-22.50,CLOSED,0
670990.257,0,0,0,1.000,1.000,0.998,-90.00,180.00,-22.50,CLOSED,0
670990.261,0,0,0,1.000,1.000,0.999,-90.00,180.00,-22.50,CLOSED,0
670990.265,0,0,0,1.000,1.000,0.999,-90.00,180.00,-22.50,CLOSED,0
670990.270,0,0,0,1.000,1.000,0.999,-90.00,180.00,-22.50,CLOSED,0
670990.275,0,0,0,1.000,1.000,0.999,-90.00,180.00,-22.50,CLOSED,0
670990.280,0,0,0,1.000,1.000,0.999,-90.00,180.00,-22.50,CLOSED,0
670990.287,0,0,0,1.000,1.000,0.998,-90.00,180.00,-22.50,CLOSED,0
670990.295,0,0,0,1.000,1.000,0.997,-90.00,180.00,-22.50,CLOSED,0
670990.302,0,0,0,1.000,1.000,0.994,-90.00,180.00,-22.50,CLOSED,0
670990.310,0,0,0,1.000,0.999,0.988,-90.00,180.00,-22.50,CLOSED,0
670990.318,0,0,0,1.000,0.999,0.982,-90.00,180.00,-22.50,CLOSED,0
670990.323,0,0,0,1.000,0.998,0.985,-90.00,180.00,-22.50,CLOSED,0
670990.327,0,0,0,1.000,0.997,0.991,-90.00,180.00,-22.50,CLOSED,0
670990.331,0,0,0,1.000,0.997,0.995,-90.00,180.00,-22.50,CLOSED,0
670990.338,0,0,0,1.000,0.996,0.997,-90.00,180.00,-22.50,CLOSED,0
670990.342,0,0,0,1.000,0.995,0.998,-90.00,180.00,-22.50,CLOSED,0
670990.346,0,0,0,1.000,0.996,0.999,-90.00,180.00,-22.50,CLOSED,0
670990.350,0,0,0,1.000,0.997,0.998,-90.00,180.00,-22.50,CLOSED,0
670990.356,0,0,0,1.000,0.997,0.998,-90.00,180.00,-22.50,CLOSED,0
670990.359,0,0,0,1.000,0.998,0.997,-90.00,180.00,-22.50,CLOSED,0
670990.363,0,0,0,1.000,0.998,0.994,-90.00,180.00,-22.50,CLOSED,0
670990.367,0,0,0,1.000,0.999,0.988,-90.00,180.00,-22.50,CLOSED,0
670990.372,0,0,0,1.000,0.999,0.979,-90.00,180.00,-22.50,CLOSED,0
670990.375,0,0,0,1.000,0.999,0.976,-90.00,180.00,-22.50,CLOSED,0
670990.379,0,0,0,1.000,0.999,0.981,-90.00,180.00,-22.50,CLOSED,0
670990.383,0,0,0,1.000,0.999,0.984,-90.00,180.00,-22.50,CLOSED,0
670990.388,0,0,0,1.000,0.998,0.988,-90.00,180.00,-22.50,CLOSED,0
670990.391,0,0,0,1.000,0.998,0.993,-90.00,180.00,-22.50,CLOSED,0
670990.396,0,0,0,1.000,0.998,0.995,-90.00,180.00,-22.50,CLOSED,0
670990.404,0,0,0,1.000,0.998,0.997,-90.00,180.00,-22.50,CLOSED,0
670990.408,0,0,0,1.000,0.999,0.998,-90.00,180.00,-22.50,CLOSED,0
670990.411,0,0,0,1.000,0.999,0.998,-90.00,180.00,-22.50,CLOSED,0
670990.415,0,0,0,1.000,0.999,0.999,-90.00,180.00,-22.50,CLOSED,0
670990.422,0,0,0,1.000,0.999,0.999,-90.00,180.00,-22.50,CLOSED,0
670990.427,0,0,0,1.000,1.000,0.999,-90.00,180.00,-22.50,CLOSED,0
670990.433,0,0,0,1.000,1.000,0.998,-90.00,180.00,-22.50,CLOSED,0
670990.440,0,0,0,1.000,1.000,0.998,-90.00,180.00,-22.50,CLOSED,0
670990.451,0,0,0,1.000,1.000,0.998,-90.00,180.00,-22.50,CLOSED,0
670990.459,0,0,0,1.000,1.000,0.999,-90.00,180.00,-22.50,CLOSED,0
670990.469,0,0,0,1.000,1.000,0.999,-90.00,180.00,-22.50,CLOSED,0
670990.478,0,0,0,1.000,1.000,1.000,-90.00,180.00,-22.50,CLOSED,0
670990.488,0,0,0,1.000,1.000,1.000,-90.00,180.00,-22.50,CLOSED,0
670990.494,0,0,0,1.000,1.000,1.000,-90.00,180.00,-22.50,CLOSED,0
670990.503,0,0,0,1.000,1.000,1.000,-90.00,180.00,-22.50,CLOSED,0
670990.507,0,0,0,1.000,1.000,1.000,-90.00,180.00,-22.50,CLOSED,0
670990.515,0,0,0,1.000,1.000,1.000,-90.00,180.00,-22.50,CLOSED,0
670990.524,0,0,0,1.000,1.000,1.000,-90.00,180.00,-22.50,CLOSED,0
670990.532,0,0,0,1.000,1.000,1.000,-90.00,180.00,-22.50,CLOSED,0
670990.540,0,0,0,1.000,1.000,1.000,-90.00,180.00,-22.50,CLOSED,0
670990.549,0,0,0,1.000,1.000,1.000,-90.00,180.00,-22.50,CLOSED,0
670990.555,0,0,0,1.000,1.000,0.999,-90.00,180.00,-22.50,CLOSED,0
670990.558,0,0,0,1.000,1.000,0.999,-90.00,180.00,-22.50,CLOSED,0
670990.563,0,0,0,1.000,1.000,0.999,-90.00,180.00,-22.50,CLOSED,0
670990.568,0,0,0,1.000,1.000,0.999,-90.00,180.00,-22.50,CLOSED,0
670990.574,0,0,0,1.000,1.000,0.999,-90.00,180.00,-22.50,CLOSED,0
670990.579,0,0,0,1.000,1.000,0.999,-90.00,180.00,-22.50,CLOSED,0
670990.585,0,0,0,1.000,1.000,0.999,-90.00,180.00,-22.50,CLOSED,0
670990.594,0,0,0,1.000,1.000,0.999,-90.00,180.00,-22.50,CLOSED,0
670990.598,0,0,0,1.000,1.000,0.999,-90.00,180.00,-22.50,CLOSED,0
670990.601,0,0,0,1.000,1.000,0.999,-90.00,180.00,-22.50,CLOSED,0
670990.605,0,0,0,1.000,1.000,0.998,-90.00,180.00,-22.50,CLOSED,0
670990.609,0,0,0,1.000,1.000,0.996,-90.00,180.00,-22.50,CLOSED,0
670990.614,0,0,0,1.000,0.999,0.992,-90.00,180.00,-22.50,CLOSED,0
670990.618,0,0,0,1.000,0.998,0.985,-90.00,180.00,-22.50,CLOSED,0
670990.622,0,0,0,1.000,0.988,0.978,-90.00,180.00,-22.50,CLOSED,0
670990.626,0,1,0,1.000,0.924,0.974,-90.00,179.77,-22.50,CLOSED,0
670990.629,0,1,0,1.000,0.623,0.976,-90.00,179.55,-22.50,CLOSED,0
670990.633,0,1,0,1.000,0.959,0.989,-90.00,179.32,-22.50,CLOSED,1
670990.637,0,1,0,1.000,0.995,0.995,-90.00,179.08,-22.50,CLOSED,0
670990.642,0,1,0,1.000,0.999,0.996,-90.00,178.80,-22.50,CLOSED,0
670990.646,0,1,0,1.000,1.000,0.998,-90.00,178.56,-22.50,CLOSED,0
670990.650,0,1,0,1.000,1.000,0.998,-90.00,178.32,-22.50,CLOSED,0
670990.654,0,1,0,1.000,1.000,0.999,-90.00,178.07,-22.50,CLOSED,0
670990.659,0,1,0,1.000,1.000,0.999,-90.00,177.80,-22.50,CLOSED,0
670990.665,0,1,0,1.000,1.000,0.999,-90.00,177.41,-22.50,CLOSED,0
670990.673,0,1,0,1.000,0.999,1.000,-90.00,176.94,-22.50,CLOSED,0
670990.678,0,1,0,1.000,0.999,1.000,-90.00,176.63,-22.50,CLOSED,0
670990.683,0,1,0,1.000,0.998,1.000,-90.00,176.35,-22.50,CLOSED,0
670990.688,0,1,0,1.000,0.996,1.000,-90.00,176.04,-22.50,CLOSED,0
670990.692,0,1,0,0.999,0.994,1.000,-90.00,175.80,-22.50,CLOSED,0
670990.696,0,1,0,0.999,0.986,1.000,-90.00,175.56,-22.50,CLOSED,0
670990.700,0,1,0,0.999,0.981,1.000,-90.00,175.33,-22.50,CLOSED,0
670990.704,0,1,0,0.999,0.985,1.000,-90.00,175.05,-22.50,CLOSED,0
670990.708,0,1,0,0.999,0.996,1.000,-90.00,174.82,-22.50,CLOSED,0
670990.713,0,1,0,0.997,0.996,1.000,-90.00,174.54,-22.50,CLOSED,0
670990.719,0,1,0,0.997,1.000,1.000,-90.00,174.16,-22.50,CLOSED,0
670990.724,0,1,0,0.994,1.000,1.000,-90.00,173.85,-22.50,CLOSED,0
670990.730,0,1,0,0.998,1.000,1.000,-90.00,173.50,-22.50,CLOSED,0
670990.735,0,1,0,0.999,1.000,1.000,-90.00,173.22,-22.50,CLOSED,1
670990.741,0,1,0,1.000,1.000,1.000,-90.00,172.88,-22.50,CLOSED,0
670990.745,0,1,0,1.000,1.000,1.000,-90.00,172.60,-22.50,CLOSED,0
670990.750,0,1,0,1.000,1.000,1.000,-90.00,172.30,-22.50,CLOSED,0
670990.758,0,1,0,1.000,1.000,1.000,-90.00,171.84,-22.50,CLOSED,0
670990.762,0,1,0,0.999,1.000,1.000,-90.00,171.57,-22.50,CLOSED,0
670990.768,0,1,0,1.000,1.000,1.000,-90.00,171.24,-22.50,CLOSED,0
670990.775,0,1,0,1.000,1.000,1.000,-90.00,170.81,-22.50,CLOSED,0
670990.782,0,1,0,1.000,1.000,1.000,-90.00,170.40,-22.50,CLOSED,0
670990.786,0,1,0,1.000,1.000,1.000,-90.00,170.17,-22.50,CLOSED,0
670990.793,0,1,0,1.000,1.000,1.000,-90.00,169.73,-22.50,CLOSED,0
670990.797,0,1,0,1.000,1.000,1.000,-90.00,169.48,-22.50,CLOSED,0
670990.802,0,1,0,1.000,1.000,1.000,-90.00,169.22,-22.50,CLOSED,0
670990.809,0,1,0,1.000,1.000,1.000,-90.00,168.77,-22.50,CLOSED,0
670990.814,0,1,0,1.000,1.000,1.000,-90.00,168.51,-22.50,CLOSED,0
670990.817,0,1,0,1.000,1.000,1.000,-90.00,168.27,-22.50,CLOSED,0
670990.822,0,1,0,1.000,1.000,1.000,-90.00,168.01,-22.50,CLOSED,0
670990.826,0,1,0,1.000,1.000,1.000,-90.00,167.75,-22.50,CLOSED,0
670990.835,0,1,0,1.000,1.000,1.000,-90.00,167.22,-22.50,CLOSED,0
670990.839,0,1,0,1.000,1.000,1.000,-90.00,166.97,-22.50,CLOSED,1
670990.844,0,1,0,1.000,1.000,1.000,-90.00,166.69,-22.50,CLOSED,0
670990.848,0,1,0,1.000,1.000,1.000,-90.00,166.46,-22.50,CLOSED,0
670990.853,0,1,0,1.000,1.000,1.000,-90.00,166.14,-22.50,CLOSED,0
670990.857,0,1,0,1.000,1.000,1.000,-90.00,165.87,-22.50,CLOSED,0
670990.867,0,1,0,1.000,1.000,1.000,-90.00,165.33,-22.50,CLOSED,0
670990.871,0,1,0,1.000,1.000,1.000,-90.00,165.05,-22.50,CLOSED,0
670990.876,0,1,0,1.000,1.000,1.000,-90.00,164.78,-22.50,CLOSED,0
670990.880,0,1,0,1.000,1.000,1.000,-90.00,164.52,-22.50,CLOSED,0
670990.883,0,1,0,1.000,1.000,1.000,-90.00,164.31,-22.50,CLOSED,0
670990.888,0,1,0,1.000,1.000,1.000,-90.00,164.05,-22.50,CLOSED,0
670990.891,0,1,0,1.000,1.000,1.000,-90.00,163.83,-22.50,CLOSED,0
670990.896,0,1,0,1.000,1.000,1.000,-90.00,163.59,-22.50,CLOSED,0
670990.899,0,1,0,1.000,1.000,1.000,-90.00,163.36,-22.50,CLOSED,0
670990.905,0,1,0,1.000,1.000,1.000,-90.00,163.05,-22.50,CLOSED,0
670990.908,0,1,0,1.000,1.000,1.000,-90.00,162.81,-22.50,CLOSED,0
670990.912,0,1,0,1.000,1.000,1.000,-90.00,162.57,-22.50,CLOSED,0
670990.916,0,1,0,1.000,1.000,1.000,-90.00,162.36,-22.50,CLOSED,0
670990.921,0,1,0,1.000,1.000,1.000,-90.00,162.05,-22.50,CLOSED,0
670990.925,0,1,0,1.000,1.000,1.000,-90.00,161.79,-22.50,CLOSED,0
670990.931,0,1,0,1.000,1.000,1.000,-90.00,161.48,-22.50,CLOSED,0
670990.938,0,1,0,1.000,1.000,1.000,-90.00,161.04,-22.50,CLOSED,0
670990.943,0,1,0,1.000,1.000,1.000,-90.00,160.72,-22.50,CLOSED,1
670990.948,0,1,0,1.000,1.000,1.000,-90.00,160.43,-22.50,CLOSED,0
670990.956,0,1,0,1.000,1.000,1.000,-90.00,159.98,-22.50,CLOSED,0
670990.964,0,1,0,1.000,1.000,1.000,-90.00,159.48,-22.50,CLOSED,0
670990.975,0,1,0,1.000,1.000,1.000,-90.00,158.80,-22.50,CLOSED,0
670990.980,0,1,0,1.000,1.000,1.000,-90.00,158.54,-22.50,CLOSED,0
670990.984,0,1,0,1.000,1.000,1.000,-90.00,158.25,-22.50,CLOSED,0
670990.994,0,1,0,1.000,1.000,1.000,-90.00,157.68,-22.50,CLOSED,0
670991.003,0,1,0,1.000,1.000,1.000,-90.00,157.16,-22.50,CLOSED,0
670991.011,0,1,0,1.000,1.000,1.000,-90.00,156.68,-22.50,CLOSED,0
670991.019,0,1,0,1.000,1.000,1.000,-90.00,156.18,-22.50,CLOSED,0
670991.023,0,1,0,1.000,1.000,1.000,-90.00,155.91,-22.50,CLOSED,0
670991.027,0,1,0,1.000,1.000,1.000,-90.00,155.70,-22.50,CLOSED,0
670991.031,0,1,0,1.000,1.000,1.000,-90.00,155.47,-22.50,CLOSED,0
670991.035,0,1,0,1.000,1.000,1.000,-90.00,155.23,-22.50,CLOSED,0
670991.039,0,1,0,1.000,1.000,1.000,-90.00,154.95,-22.50,CLOSED,0
670991.044,0,1,0,1.000,1.000,1.000,-90.00,154.69,-22.50,CLOSED,1
670991.052,0,1,0,1.000,1.000,1.000,-90.00,154.19,-22.50,CLOSED,0
670991.060,0,1,0,1.000,1.000,1.000,-90.00,153.71,-22.50,CLOSED,0
670991.068,0,1,0,1.000,1.000,1.000,-90.00,153.23,-22.50,CLOSED,0
670991.073,0,1,0,1.000,1.000,1.000,-90.00,152.92,-22.50,CLOSED,0
670991.077,0,1,0,1.000,1.000,1.000,-90.00,152.71,-22.50,CLOSED,0
670991.085,0,1,0,1.000,1.000,1.000,-90.00,152.24,-22.50,CLOSED,0
670991.090,0,1,0,1.000,1.000,1.000,-90.00,151.92,-22.50,CLOSED,0
670991.094,0,1,0,1.000,1.000,1.000,-90.00,151.68,-22.50,CLOSED,0
670991.098,0,1,0,1.000,1.000,1.000,-90.00,151.43,-22.50,CLOSED,0
670991.102,0,1,0,1.000,1.000,1.000,-90.00,151.19,-22.50,CLOSED,0
670991.110,0,1,0,1.000,1.000,1.000,-90.00,150.72,-22.50,CLOSED,0
670991.114,0,1,0,1.000,1.000,1.000,-90.00,150.49,-22.50,CLOSED,0
670991.118,0,1,0,1.000,1.000,1.000,-90.00,150.25,-22.50,CLOSED,0
670991.124,0,1,0,1.000,1.000,1.000,-90.00,149.86,-22.50,CLOSED,0
670991.128,0,1,0,1.000,1.000,1.000,-90.00,149.63,-22.50,CLOSED,0
670991.132,0,1,0,1.000,1.000,1.000,-90.00,149.39,-22.50,CLOSED,0
670991.136,0,1,0,1.000,1.000,1.000,-90.00,149.16,-22.50,CLOSED,0
670991.140,0,1,0,1.000,1.000,1.000,-90.00,148.94,-22.50,CLOSED,0
670991.143,0,1,0,1.000,1.000,1.000,-90.00,148.73,-22.50,CLOSED,0
670991.147,0,1,0,1.000,1.000,1.000,-90.00,148.51,-22.50,CLOSED,1
670991.151,0,1,0,1.000,1.000,1.000,-90.00,148.26,-22.50,CLOSED,0
670991.158,0,1,0,1.000,1.000,1.000,-90.00,147.84,-22.50,CLOSED,0
670991.165,0,0,0,1.000,1.000,1.000,-90.00,148.29,-22.50,CLOSED,0
670991.173,0,0,0,1.000,1.000,1.000,-90.00,148.77,-22.50,CLOSED,0
670991.181,0,0,0,1.000,1.000,1.000,-90.00,149.21,-22.50,CLOSED,0
670991.188,0,0,0,1.000,1.000,1.000,-90.00,149.64,-22.50,CLOSED,0
670991.194,0,0,0,1.000,1.000,1.000,-90.00,149.99,-22.50,CLOSED,0
670991.198,0,0,0,1.000,1.000,1.000,-90.00,150.28,-22.50,CLOSED,0
670991.204,0,0,0,1.000,1.000,1.000,-90.00,150.63,-22.50,CLOSED,0
670991.209,0,0,0,1.000,1.000,1.000,-90.00,150.89,-22.50,CLOSED,0
670991.213,0,0,0,1.000,1.000,1.000,-90.00,151.13,-22.50,CLOSED,0
670991.216,0,0,0,1.000,1.000,1.000,-90.00,151.35,-22.50,CLOSED,0
670991.221,0,0,0,1.000,1.000,1.000,-90.00,151.61,-22.50,CLOSED,0
670991.224,0,0,0,1.000,1.000,1.000,-90.00,151.83,-22.50,CLOSED,0
670991.228,0,0,0,1.000,1.000,1.000,-90.00,152.06,-22.50,CLOSED,0
670991.232,0,0,0,1.000,1.000,1.000,-90.00,152.32,-22.50,CLOSED,0
670991.237,0,0,0,1.000,1.000,1.000,-90.00,152.60,-22.50,CLOSED,0
670991.244,0,0,0,1.000,1.000,1.000,-90.00,152.98,-22.50,CLOSED,0
670991.248,0,0,0,1.000,1.000,1.000,-90.00,153.28,-22.50,CLOSED,1
670991.253,0,0,0,1.000,1.000,1.000,-90.00,153.55,-22.50,CLOSED,0
670991.257,0,0,0,1.000,1.000,1.000,-90.00,153.80,-22.50,CLOSED,0
670991.261,0,0,0,1.000,1.000,1.000,-90.00,154.03,-22.50,CLOSED,0
670991.265,0,0,0,1.000,1.000,1.000,-90.00,154.25,-22.50,CLOSED,0
670991.269,0,0,0,1.000,1.000,1.000,-90.00,154.49,-22.50,CLOSED,0
670991.273,0,0,0,1.000,1.000,1.000,-90.00,154.76,-22.50,CLOSED,0
670991.277,0,0,0,1.000,1.000,1.000,-90.00,154.98,-22.50,CLOSED,0
670991.280,0,0,0,1.000,1.000,1.000,-90.00,155.20,-22.50,CLOSED,0
670991.285,0,0,0,1.000,1.000,1.000,-90.00,155.45,-22.50,CLOSED,0
670991.289,0,0,0,1.000,1.000,1.000,-90.00,155.71,-22.50,CLOSED,0
670991.294,0,0,0,1.000,1.000,1.000,-90.00,156.01,-22.50,CLOSED,0
670991.298,0,0,0,1.000,1.000,1.000,-90.00,156.25,-22.50,CLOSED,0
670991.302,0,0,0,1.000,1.000,1.000,-90.00,156.49,-22.50,CLOSED,0
670991.311,0,0,0,1.000,1.000,1.000,-90.00,157.05,-22.50,CLOSED,0
670991.316,0,0,0,1.000,1.000,1.000,-90.00,157.31,-22.50,CLOSED,0
670991.320,0,0,0,1.000,1.000,1.000,-90.00,157.56,-22.50,CLOSED,0
670991.326,0,0,0,1.000,1.000,1.000,-90.00,157.91,-22.50,CLOSED,0
670991.329,0,0,0,1.000,1.000,1.000,-90.00,158.13,-22.50,CLOSED,0
670991.333,0,0,0,1.000,1.000,1.000,-90.00,158.36,-22.50,CLOSED,0
670991.338,0,0,0,1.000,1.000,1.000,-90.00,158.62,-22.50,CLOSED,0
670991.342,0,0,0,1.000,1.000,1.000,-90.00,158.87,-22.50,CLOSED,0
670991.346,0,0,0,1.000,1.000,1.000,-90.00,159.12,-22.50,CLOSED,0
670991.350,0,0,0,1.000,1.000,1.000,-90.00,159.37,-22.50,CLOSED,1
670991.355,0,0,0,1.000,1.000,1.000,-90.00,159.64,-22.50,CLOSED,0
670991.359,0,0,0,1.000,1.000,1.000,-90.00,159.91,-22.50,CLOSED,0
670991.363,0,0,0,1.000,1.000,1.000,-90.00,160.17,-22.50,CLOSED,0
670991.367,0,0,0,1.000,1.000,1.000,-90.00,160.41,-22.50,CLOSED,0
670991.372,0,0,0,1.000,1.000,1.000,-90.00,160.69,-22.50,CLOSED,0
670991.376,0,0,0,0.999,1.000,1.000,-90.00,160.92,-22.50,CLOSED,0
670991.379,0,0,0,0.858,1.000,1.000,-90.00,161.14,-22.50,CLOSED,0
670991.383,0,0,0,0.484,1.000,1.000,-90.00,161.38,-22.50,CLOSED,0
670991.388,0,0,0,0.481,1.000,1.000,-90.00,161.67,-22.50,CLOSED,0
670991.392,0,0,0,0.604,1.000,1.000,-90.00,161.91,-22.50,CLOSED,0
670991.396,0,0,0,0.670,1.000,1.000,-90.00,162.16,-22.50,CLOSED,0
670991.400,0,0,0,0.776,1.000,1.000,-90.00,162.40,-22.50,CLOSED,0
670991.405,0,0,0,0.937,1.000,1.000,-90.00,162.65,-22.50,CLOSED,0
670991.409,0,0,0,0.997,1.000,1.000,-90.00,162.90,-22.50,CLOSED,0
670991.413,0,0,0,1.000,1.000,1.000,-90.00,163.13,-22.50,CLOSED,0
670991.417,0,0,0,1.000,1.000,1.000,-90.00,163.39,-22.50,CLOSED,0
670991.421,0,0,0,1.000,1.000,1.000,-90.00,163.66,-22.50,CLOSED,0
670991.425,3,0,0,1.000,1.000,1.000,-90.00,163.90,-22.50,OPEN,0
670991.430,3,0,0,1.000,1.000,1.000,-90.00,164.18,-22.50,OPEN,0
670991.434,3,0,0,1.000,1.000,1.000,-90.00,164.44,-22.50,OPEN,0
670991.440,3,0,0,1.000,1.000,1.000,-90.00,164.80,-22.50,OPEN,0
670991.444,3,0,0,1.000,1.000,1.000,-90.00,165.03,-22.50,OPEN,0
670991.448,3,0,0,1.000,1.000,1.000,-90.00,165.26,-22.50,OPEN,0
670991.452,3,0,0,1.000,1.000,1.000,-90.00,165.50,-22.50,OPEN,1
670991.456,3,0,0,1.000,1.000,1.000,-90.00,165.74,-22.50,OPEN,0
670991.461,3,0,0,1.000,1.000,1.000,-90.00,166.03,-22.50,OPEN,0
670991.466,3,0,0,1.000,1.000,1.000,-90.00,166.33,-22.50,OPEN,0
670991.472,3,0,0,1.000,1.000,1.000,-90.00,166.66,-22.50,OPEN,0
670991.476,3,0,0,1.000,1.000,1.000,-90.00,166.92,-22.50,OPEN,0
670991.481,3,0,0,1.000,1.000,1.000,-90.00,167.25,-22.50,OPEN,0
670991.488,3,0,0,1.000,1.000,1.000,-90.00,167.64,-22.50,OPEN,0
670991.494,3,0,0,1.000,1.000,1.000,-90.00,168.00,-22.50,OPEN,0
670991.499,3,0,0,1.000,1.000,1.000,-90.00,168.29,-22.50,OPEN,0
670991.503,3,0,0,1.000,1.000,1.000,-90.00,168.55,-22.50,OPEN,0
670991.507,3,0,0,1.000,1.000,1.000,-90.00,168.79,-22.50,OPEN,0
670991.511,3,0,0,1.000,1.000,1.000,-90.00,169.02,-22.50,OPEN,0
670991.515,3,0,0,1.000,1.000,1.000,-90.00,169.26,-22.50,OPEN,0
670991.519,3,0,0,1.000,1.000,1.000,-90.00,169.49,-22.50,OPEN,0
670991.524,3,0,0,1.000,1.000,1.000,-90.00,169.79,-22.50,OPEN,0
670991.528,3,0,0,1.000,1.000,1.000,-90.00,170.03,-22.50,OPEN,0
670991.532,3,0,0,1.000,1.000,1.000,-90.00,170.26,-22.50,OPEN,0
670991.535,3,0,0,1.000,1.000,1.000,-90.00,170.50,-22.50,OPEN,0
670991.540,3,0,0,1.000,1.000,1.000,-90.00,170.75,-22.50,OPEN,0
670991.546,3,0,0,1.000,1.000,1.000,-90.00,171.11,-22.50,OPEN,0
670991.550,3,0,0,1.000,1.000,1.000,-90.00,171.35,-22.50,OPEN,0
670991.554,3,0,0,1.000,1.000,1.000,-90.00,171.60,-22.50,OPEN,1
670991.558,3,0,0,1.000,1.000,1.000,-90.00,171.84,-22.50,OPEN,0
670991.562,3,0,0,1.000,1.000,1.000,-90.00,172.10,-22.50,OPEN,0
670991.566,3,0,0,1.000,1.000,1.000,-90.00,172.32,-22.50,OPEN,0
670991.570,3,0,0,1.000,1.000,1.000,-90.00,172.57,-22.50,OPEN,0
670991.574,3,0,0,1.000,1.000,1.000,-90.00,172.81,-22.50,OPEN,0
670991.578,3,0,0,1.000,1.000,1.000,-90.00,173.06,-22.50,OPEN,0
670991.582,3,0,0,1.000,1.000,1.000,-90.00,173.29,-22.50,OPEN,0
670991.586,3,0,0,1.000,1.000,1.000,-90.00,173.55,-22.50,OPEN,0
670991.592,3,0,0,1.000,1.000,1.000,-90.00,173.90,-22.50,OPEN,0
670991.596,3,0,0,1.000,1.000,1.000,-90.00,174.15,-22.50,OPEN,0
670991.600,3,0,0,1.000,1.000,1.000,-90.00,174.38,-22.50,OPEN,0
670991.605,3,0,0,1.000,1.000,1.000,-90.00,174.65,-22.50,OPEN,0
670991.609,3,0,0,1.000,1.000,1.000,-90.00,174.90,-22.50,OPEN,0
670991.613,3,0,0,1.000,1.000,1.000,-90.00,175.14,-22.50,OPEN,0
670991.617,3,0,0,1.000,1.000,1.000,-90.00,175.40,-22.50,OPEN,0
670991.621,3,0,0,1.000,1.000,1.000,-90.00,175.64,-22.50,OPEN,0
670991.625,3,0,0,1.000,1.000,1.000,-90.00,175.88,-22.50,OPEN,0
670991.629,3,0,0,1.000,1.000,1.000,-90.00,176.12,-22.50,OPEN,0
670991.633,3,0,0,1.000,1.000,1.000,-90.00,176.36,-22.50,OPEN,0
670991.637,3,0,0,1.000,1.000,1.000,-90.00,176.61,-22.50,OPEN,0
670991.641,3,0,0,1.000,1.000,1.000,-90.00,176.86,-22.50,OPEN,0
670991.645,3,0,0,1.000,1.000,1.000,-90.00,177.10,-22.50,OPEN,0
670991.649,3,0,0,1.000,1.000,1.000,-90.00,177.33,-22.50,OPEN,0
670991.655,3,0,0,1.000,1.000,1.000,-90.00,177.65,-22.50,OPEN,1
670991.659,3,0,0,1.000,1.000,1.000,-90.00,177.93,-22.50,OPEN,0
670991.664,3,0,0,1.000,1.000,1.000,-90.00,178.18,-22.50,OPEN,0
670991.668,3,0,0,1.000,1.000,1.000,-90.00,178.43,-22.50,OPEN,0
670991.672,3,0,0,1.000,1.000,1.000,-90.00,178.68,-22.50,OPEN,0
670991.676,3,0,0,1.000,1.000,1.000,-90.00,178.92,-22.50,OPEN,0
670991.680,3,0,0,1.000,1.000,1.000,-90.00,179.16,-22.50,OPEN,0
670991.685,3,0,0,1.000,1.000,1.000,-90.00,179.46,-22.50,OPEN,0
670991.689,3,0,0,1.000,1.000,1.000,-90.00,179.73,-22.50,OPEN,0
670991.693,3,0,0,1.000,1.000,1.000,-90.00,179.97,-22.50,OPEN,0
670991.701,3,0,0,1.000,1.000,1.000,-90.00,180.00,-22.50,OPEN,0
670991.705,3,0,0,1.000,1.000,1.000,-90.00,180.00,-22.50,OPEN,0
670991.709,3,0,0,1.000,1.000,1.000,-90.00,180.00,-22.50,OPEN,0
670991.714,3,0,0,1.000,1.000,1.000,-90.00,180.00,-22.50,OPEN,0
670991.719,3,0,0,1.000,1.000,1.000,-90.00,180.00,-22.50,OPEN,0
670991.724,3,0,0,1.000,1.000,1.000,-90.00,180.00,-22.50,OPEN,0
670991.731,3,0,0,1.000,1.000,1.000,-90.00,180.00,-22.50,OPEN,0
670991.736,3,0,0,1.000,1.000,1.000,-90.00,180.00,-22.50,OPEN,0
670991.742,3,0,0,1.000,1.000,1.000,-90.00,180.00,-22.50,OPEN,0
670991.747,3,0,0,1.000,1.000,1.000,-90.00,180.00,-22.50,OPEN,0
670991.753,3,0,0,1.000,1.000,1.000,-90.00,180.00,-22.50,OPEN,0
670991.760,3,0,0,1.000,1.000,1.000,-90.00,180.00,-22.50,OPEN,1
670991.769,3,0,0,1.000,1.000,1.000,-90.00,180.00,-22.50,OPEN,0
670991.778,3,0,0,1.000,1.000,1.000,-90.00,180.00,-22.50,OPEN,0
670991.786,3,0,0,1.000,1.000,1.000,-90.00,180.00,-22.50,OPEN,0
670991.792,3,0,0,1.000,1.000,1.000,-90.00,180.00,-22.50,OPEN,0
670991.798,3,0,0,1.000,1.000,1.000,-90.00,180.00,-22.50,OPEN,0
670991.802,3,0,0,1.000,1.000,1.000,-90.00,180.00,-22.50,OPEN,0
670991.809,3,0,0,1.000,1.000,1.000,-90.00,180.00,-22.50,OPEN,0
670991.818,3,0,0,1.000,1.000,1.000,-90.00,180.00,-22.50,OPEN,0
670991.826,3,0,0,1.000,1.000,1.000,-90.00,180.00,-22.50,OPEN,0
670991.834,3,0,0,1.000,1.000,1.000,-90.00,180.00,-22.50,OPEN,0
670991.842,3,0,0,1.000,1.000,1.000,-90.00,180.00,-22.50,OPEN,0
670991.851,3,0,0,1.000,1.000,1.000,-90.00,180.00,-22.50,OPEN,0
670991.859,3,0,0,1.000,1.000,1.000,-90.00,180.00,-22.50,OPEN,0
670991.867,3,0,0,1.000,1.000,1.000,-90.00,180.00,-22.50,OPEN,0
670991.874,3,0,0,1.000,1.000,1.000,-90.00,180.00,-22.50,OPEN,0
670991.882,3,0,0,1.000,1.000,1.000,-90.00,180.00,-22.50,OPEN,0
670991.890,3,0,0,1.000,1.000,1.000,-90.00,180.00,-22.50,OPEN,0
670991.898,3,0,0,1.000,1.000,1.000,-90.00,180.00,-22.50,OPEN,0
670991.904,3,0,0,1.000,1.000,1.000,-90.00,180.00,-22.50,OPEN,0
670991.908,3,0,0,1.000,1.000,1.000,-90.00,180.00,-22.50,OPEN,0
670991.913,3,0,0,1.000,1.000,1.000,-90.00,180.00,-22.50,OPEN,0
670991.916,3,0,0,1.000,1.000,1.000,-90.00,180.00,-22.50,OPEN,0
670991.920,3,0,0,1.000,1.000,1.000,-90.00,180.00,-22.50,OPEN,0
670991.924,3,0,0,1.000,1.000,1.000,-90.00,180.00,-22.50,OPEN,0
670991.928,3,0,0,1.000,1.000,1.000,-90.00,180.00,-22.50,OPEN,0
670991.932,3,0,0,1.000,1.000,1.000,-90.00,180.00,-22.50,OPEN,0
670991.936,3,0,0,1.000,1.000,1.000,-90.00,180.00,-22.50,OPEN,0
670991.940,3,0,0,1.000,1.000,1.000,-90.00,180.00,-22.50,OPEN,0
670991.944,3,0,0,1.000,1.000,1.000,-90.00,180.00,-22.50,OPEN,0
670991.952,3,0,0,1.000,1.000,1.000,-90.00,180.00,-22.50,OPEN,0
670991.956,3,0,0,1.000,1.000,1.000,-90.00,180.00,-22.50,OPEN,0
670991.961,3,0,0,1.000,1.000,1.000,-90.00,180.00,-22.50,OPEN,0
670991.968,3,0,0,1.000,1.000,1.000,-90.00,180.00,-22.50,OPEN,0
670991.977,3,0,0,0.999,1.000,1.000,-90.00,180.00,-22.50,OPEN,0
670991.985,3,0,0,0.975,1.000,1.000,-90.00,180.00,-22.50,OPEN,0
670991.992,3,0,0,0.869,1.000,1.000,-90.00,180.00,-22.50,OPEN,0
670991.998,3,0,0,0.666,1.000,1.000,-90.00,180.00,-22.50,OPEN,0
670992.003,3,0,0,0.511,1.000,1.000,-90.00,180.00,-22.50,OPEN,0
670992.008,3,0,0,0.589,1.000,1.000,-90.00,180.00,-22.50,OPEN,0
670992.016,3,0,0,0.639,1.000,1.000,-90.00,180.00,-22.50,OPEN,0
670992.020,3,0,0,0.562,1.000,1.000,-90.00,180.00,-22.50,OPEN,0
670992.026,3,0,0,0.920,1.000,1.000,-90.00,180.00,-22.50,OPEN,0
670992.030,3,0,0,1.000,1.000,1.000,-90.00,180.00,-22.50,OPEN,0
670992.034,3,0,0,1.000,1.000,1.000,-90.00,180.00,-22.50,OPEN,0
670992.038,3,0,0,1.000,1.000,1.000,-90.00,180.00,-22.50,OPEN,0
670992.043,3,0,0,1.000,1.000,1.000,-90.00,180.00,-22.50,OPEN,0
670992.051,3,0,0,1.000,1.000,1.000,-90.00,180.00,-22.50,OPEN,0
670992.061,3,0,0,1.000,1.000,1.000,-90.00,180.00,-22.50,OPEN,0
670992.068,0,0,0,1.000,1.000,1.000,-90.00,180.00,-22.50,OPEN,0
670992.076,0,0,0,1.000,1.000,1.000,-90.00,180.00,-22.50,OPEN,0
670992.082,0,0,0,1.000,1.000,1.000,-90.00,180.00,-22.50,OPEN,0
670992.089,0,0,0,1.000,1.000,1.000,-90.00,180.00,-22.50,OPEN,0
670992.093,0,0,0,1.000,1.000,1.000,-90.00,180.00,-22.50,OPEN,0
670992.098,0,0,0,1.000,1.000,1.000,-90.00,180.00,-22.50,OPEN,0
670992.105,0,0,0,1.000,1.000,1.000,-90.00,180.00,-22.50,OPEN,0
670992.113,0,0,0,1.000,1.000,1.000,-90.00,180.00,-22.50,OPEN,0
670992.118,0,0,0,1.000,1.000,1.000,-90.00,180.00,-22.50,OPEN,0
670992.125,0,0,0,1.000,1.000,1.000,-90.00,180.00,-22.50,OPEN,0
670992.129,0,0,0,1.000,1.000,1.000,-90.00,180.00,-22.50,OPEN,0
670992.133,0,0,0,1.000,1.000,1.000,-90.00,180.00,-22.50,OPEN,0
670992.139,0,0,0,1.000,1.000,1.000,-90.00,180.00,-22.50,OPEN,0
670992.144,0,0,0,1.000,1.000,1.000,-90.00,180.00,-22.50,OPEN,0
670992.151,0,0,0,1.000,1.000,1.000,-90.00,180.00,-22.50,OPEN,0
670992.159,0,0,0,1.000,1.000,1.000,-90.00,180.00,-22.50,OPEN,0
670992.168,0,0,0,1.000,1.000,1.000,-90.00,180.00,-22.50,OPEN,0
670992.175,0,0,0,1.000,1.000,1.000,-90.00,180.00,-22.50,OPEN,0
670992.180,0,0,0,1.000,1.000,1.000,-90.00,180.00,-22.50,OPEN,0
670992.184,0,0,0,1.000,1.000,1.000,-90.00,180.00,-22.50,OPEN,0
670992.189,0,0,0,0.999,1.000,1.000,-90.00,180.00,-22.50,OPEN,0
670992.193,0,0,0,1.000,1.000,1.000,-90.00,180.00,-22.50,OPEN,0
670992.197,0,0,0,1.000,1.000,1.000,-90.00,180.00,-22.50,OPEN,0
670992.201,0,0,0,1.000,1.000,1.000,-90.00,180.00,-22.50,OPEN,0
670992.206,0,0,0,1.000,1.000,1.000,-90.00,180.00,-22.50,OPEN,0
670992.210,0,0,0,1.000,1.000,1.000,-90.00,180.00,-22.50,OPEN,0
670992.214,0,0,0,1.000,1.000,1.000,-90.00,180.00,-22.50,OPEN,0
670992.219,0,0,0,1.000,1.000,1.000,-90.00,180.00,-22.50,OPEN,0
670992.231,0,0,0,1.000,1.000,1.000,-90.00,180.00,-22.50,OPEN,0
670992.236,0,0,0,1.000,1.000,1.000,-90.00,180.00,-22.50,OPEN,0
670992.248,0,0,0,1.000,1.000,1.000,-90.00,180.00,-22.50,OPEN,0
670992.252,0,0,0,1.000,1.000,1.000,-90.00,180.00,-22.50,OPEN,0
670992.256,0,0,0,1.000,1.000,1.000,-90.00,180.00,-22.50,OPEN,0
670992.261,0,0,0,1.000,1.000,1.000,-90.00,180.00,-22.50,OPEN,0
670992.264,0,0,0,1.000,1.000,1.000,-90.00,180.00,-22.50,OPEN,0
670992.268,0,0,0,1.000,1.000,1.000,-90.00,180.00,-22.50,OPEN,0
670992.272,0,0,0,1.000,1.000,1.000,-90.00,180.00,-22.50,OPEN,0
670992.276,0,0,0,1.000,1.000,1.000,-90.00,180.00,-22.50,OPEN,0
670992.280,0,0,0,1.000,1.000,1.000,-90.00,180.00,-22.50,OPEN,0
670992.284,0,0,0,1.000,1.000,1.000,-90.00,180.00,-22.50,OPEN,0
670992.288,0,0,0,1.000,1.000,1.000,-90.00,180.00,-22.50,OPEN,0
670992.293,0,0,0,1.000,1.000,1.000,-90.00,180.00,-22.50,OPEN,0
670992.299,0,0,0,1.000,1.000,1.000,-90.00,180.00,-22.50,OPEN,0
670992.304,0,0,0,1.000,1.000,1.000,-90.00,180.00,-22.50,OPEN,0
670992.315,0,0,0,1.000,1.000,1.000,-90.00,180.00,-22.50,OPEN,0
670992.319,0,0,0,1.000,1.000,1.000,-90.00,180.00,-22.50,OPEN,0
670992.323,0,0,0,1.000,1.000,1.000,-90.00,180.00,-22.50,OPEN,0
670992.327,0,0,0,1.000,1.000,1.000,-90.00,180.00,-22.50,OPEN,0
670992.335,0,0,0,1.000,1.000,1.000,-90.00,180.00,-22.50,OPEN,0
670992.344,0,0,0,1.000,1.000,1.000,-90.00,180.00,-22.50,OPEN,0
670992.348,0,0,0,1.000,1.000,1.000,-90.00,180.00,-22.50,OPEN,0
670992.352,0,0,0,1.000,1.000,1.000,-90.00,180.00,-22.50,OPEN,0
670992.357,0,0,0,1.000,1.000,1.000,-90.00,180.00,-22.50,OPEN,0
670992.361,0,0,0,1.000,1.000,1.000,-90.00,180.00,-22.50,OPEN,0
670992.365,0,0,0,1.000,1.000,1.000,-90.00,180.00,-22.50,OPEN,0
670992.369,0,0,0,1.000,1.000,1.000,-90.00,180.00,-22.50,OPEN,0
670992.378,0,0,0,1.000,1.000,1.000,-90.00,180.00,-22.50,OPEN,0
670992.385,0,0,0,1.000,1.000,1.000,-90.00,180.00,-22.50,OPEN,0
670992.394,0,0,0,1.000,1.000,1.000,-90.00,180.00,-22.50,OPEN,0
670992.402,0,0,0,1.000,1.000,1.000,-90.00,180.00,-22.50,OPEN,0
670992.410,0,0,0,1.000,1.000,1.000,-90.00,180.00,-22.50,OPEN,0
670992.419,0,0,0,1.000,1.000,1.000,-90.00,180.00,-22.50,OPEN,0
670992.427,0,0,0,1.000,1.000,1.000,-90.00,180.00,-22.50,OPEN,0
670992.435,0,0,0,1.000,1.000,1.000,-90.00,180.00,-22.50,OPEN,0
670992.444,0,0,0,1.000,1.000,1.000,-90.00,180.00,-22.50,OPEN,0
670992.452,0,0,0,1.000,1.000,1.000,-90.00,180.00,-22.50,OPEN,0
670992.461,0,0,0,1.000,1.000,1.000,-90.00,180.00,-22.50,OPEN,0
670992.471,0,0,0,1.000,1.000,1.000,-90.00,180.00,-22.50,OPEN,0
670992.475,0,0,0,1.000,1.000,1.000,-90.00,180.00,-22.50,OPEN,0
670992.479,0,0,0,1.000,1.000,1.000,-90.00,180.00,-22.50,OPEN,0
670992.483,0,0,0,1.000,1.000,1.000,-90.00,180.00,-22.50,OPEN,0
670992.487,0,0,0,1.000,1.000,1.000,-90.00,180.00,-22.50,OPEN,0
670992.491,0,0,0,1.000,1.000,1.000,-90.00,180.00,-22.50,OPEN,0
670992.495,0,0,0,1.000,1.000,1.000,-90.00,180.00,-22.50,OPEN,0
670992.499,0,0,0,1.000,1.000,1.000,-90.00,180.00,-22.50,OPEN,0
670992.503,0,0,0,1.000,1.000,1.000,-90.00,180.00,-22.50,OPEN,0
670992.506,0,0,0,1.000,1.000,1.000,-90.00,180.00,-22.50,OPEN,0
670992.510,0,0,0,1.000,1.000,1.000,-90.00,180.00,-22.50,OPEN,0
670992.514,0,0,0,1.000,1.000,1.000,-90.00,180.00,-22.50,OPEN,0
670992.518,0,0,0,1.000,1.000,1.000,-90.00,180.00,-22.50,OPEN,0
670992.525,0,0,0,1.000,1.000,1.000,-90.00,180.00,-22.50,OPEN,0
670992.529,0,0,0,1.000,1.000,1.000,-90.00,180.00,-22.50,OPEN,0
670992.533,0,0,0,1.000,1.000,1.000,-90.00,180.00,-22.50,OPEN,0
670992.538,0,0,0,1.000,1.000,1.000,-90.00,180.00,-22.50,OPEN,0
670992.541,0,0,0,1.000,1.000,1.000,-90.00,180.00,-22.50,OPEN,0
670992.552,0,0,0,1.000,1.000,1.000,-90.00,180.00,-22.50,OPEN,0
670992.561,0,0,0,1.000,1.000,1.000,-90.00,180.00,-22.50,OPEN,0
670992.565,0,0,0,1.000,1.000,1.000,-90.00,180.00,-22.50,OPEN,0
670992.569,0,0,0,1.000,1.000,1.000,-90.00,180.00,-22.50,OPEN,0
670992.573,0,0,0,1.000,1.000,1.000,-90.00,180.00,-22.50,OPEN,0
670992.577,0,0,0,1.000,1.000,1.000,-90.00,180.00,-22.50,OPEN,0
670992.581,0,0,0,1.000,1.000,1.000,-90.00,180.00,-22.50,OPEN,0
670992.585,0,0,0,1.000,1.000,1.000,-90.00,180.00,-22.50,OPEN,0
670992.593,0,0,0,1.000,1.000,1.000,-90.00,180.00,-22.50,OPEN,0
670992.598,0,0,0,1.000,1.000,1.000,-90.00,180.00,-22.50,OPEN,0
670992.602,0,0,0,1.000,1.000,1.000,-90.00,180.00,-22.50,OPEN,0
670992.607,0,0,0,1.000,1.000,1.000,-90.00,180.00,-22.50,OPEN,0
670992.613,0,0,0,1.000,1.000,1.000,-90.00,180.00,-22.50,OPEN,0
670992.618,0,0,0,1.000,1.000,1.000,-90.00,180.00,-22.50,OPEN,0
