t,hand,elbow,shoulder,p_hand,p_elbow,p_shoulder,J2,J3,J6,grip_state,cmd_sent
665662.518,0,0,0,0.981,1.000,0.999,-90.00,180.00,0.00,OPEN,0
665662.535,0,0,0,0.997,1.000,0.999,-90.00,180.00,0.00,OPEN,0
665662.540,0,0,0,1.000,1.000,0.998,-90.00,180.00,0.00,OPEN,0
665662.546,0,0,0,1.000,1.000,0.999,-90.00,180.00,0.00,OPEN,0
665662.552,0,0,0,1.000,1.000,0.999,-90.00,180.00,0.00,OPEN,0
665662.557,0,0,0,1.000,1.000,0.999,-90.00,180.00,0.00,OPEN,0
665662.563,0,0,0,1.000,1.000,0.999,-90.00,180.00,0.00,OPEN,0
665662.567,0,0,0,1.000,1.000,0.999,-90.00,180.00,0.00,OPEN,0
665662.572,0,0,0,1.000,1.000,0.999,-90.00,180.00,0.00,OPEN,0
665662.577,0,0,0,1.000,1.000,0.999,-90.00,180.00,0.00,OPEN,0
665662.582,0,0,0,1.000,1.000,0.999,-90.00,180.00,0.00,OPEN,0
665662.586,0,0,0,1.000,1.000,0.998,-90.00,180.00,0.00,OPEN,0
665662.592,0,0,0,1.000,1.000,0.998,-90.00,180.00,0.00,OPEN,0
665662.597,0,0,0,1.000,1.000,0.998,-90.00,180.00,0.00,OPEN,0
665662.606,0,0,0,1.000,1.000,0.996,-90.00,180.00,0.00,OPEN,0
665662.654,0,0,0,1.000,1.000,0.995,-90.00,180.00,0.00,OPEN,0
665662.704,0,0,0,1.000,1.000,0.997,-90.00,180.00,0.00,OPEN,0
665662.754,0,0,0,1.000,1.000,0.996,-90.00,180.00,0.00,OPEN,0
665662.805,0,0,0,1.000,1.000,0.997,-90.00,180.00,0.00,OPEN,0
665662.855,0,0,0,1.000,1.000,0.997,-90.00,180.00,0.00,OPEN,0
665662.904,0,0,0,1.000,1.000,0.992,-90.00,180.00,0.00,OPEN,0
665662.954,0,0,0,1.000,1.000,0.988,-90.00,180.00,0.00,OPEN,0
665663.004,0,0,0,1.000,1.000,0.972,-90.00,180.00,0.00,OPEN,0
665663.055,0,0,0,1.000,1.000,0.994,-90.00,180.00,0.00,OPEN,0
665663.104,0,0,0,1.000,1.000,0.996,-90.00,180.00,0.00,OPEN,0
665663.155,1,0,0,1.000,1.000,0.993,-90.00,180.00,0.00,OPEN,0
665663.204,1,0,0,1.000,1.000,0.994,-90.00,180.00,0.00,OPEN,0
665663.254,1,0,0,1.000,1.000,0.993,-90.00,180.00,0.00,OPEN,0
665663.304,1,0,0,1.000,1.000,0.994,-90.00,180.00,0.00,OPEN,0
665663.354,1,0,0,1.000,1.000,0.985,-90.00,180.00,0.00,OPEN,0
665663.404,1,0,0,1.000,1.000,0.889,-90.00,180.00,0.00,OPEN,0
665663.454,1,0,0,1.000,1.000,0.814,-90.00,180.00,0.00,OPEN,0
665663.504,1,0,0,1.000,1.000,0.943,-90.00,180.00,0.00,OPEN,0
665663.554,1,0,0,1.000,1.000,0.984,-90.00,180.00,0.00,OPEN,0
665663.604,1,0,0,1.000,1.000,0.991,-90.00,180.00,0.00,OPEN,0
665663.654,1,0,0,1.000,1.000,0.992,-90.00,180.00,0.00,OPEN,0
665663.705,1,0,0,1.000,1.000,0.995,-90.00,180.00,0.00,OPEN,0
665663.754,1,0,0,1.000,1.000,0.996,-90.00,180.00,0.00,OPEN,0
665663.805,1,0,0,1.000,1.000,0.998,-90.00,180.00,0.00,OPEN,0
665663.854,1,0,0,1.000,1.000,0.998,-90.00,180.00,0.00,OPEN,0
665663.904,1,0,0,1.000,1.000,0.997,-90.00,180.00,0.00,OPEN,0
665663.954,1,0,0,1.000,1.000,0.994,-90.00,180.00,0.00,OPEN,0
665664.004,1,0,0,1.000,1.000,0.994,-90.00,180.00,0.00,OPEN,0
665664.054,1,0,0,1.000,1.000,0.993,-90.00,180.00,0.00,OPEN,0
665664.104,1,0,0,1.000,1.000,0.989,-90.00,180.00,0.00,OPEN,0
665664.154,1,0,0,1.000,1.000,0.981,-90.00,180.00,0.00,OPEN,0
665664.204,1,0,0,1.000,1.000,0.978,-90.00,180.00,0.00,OPEN,0
665664.254,1,0,0,1.000,1.000,0.983,-90.00,180.00,0.00,OPEN,0
665664.304,1,0,0,1.000,1.000,0.993,-90.00,180.00,0.00,OPEN,0
665664.354,1,0,0,1.000,1.000,0.992,-90.00,180.00,0.00,OPEN,0
665664.405,1,0,0,1.000,1.000,0.992,-90.00,180.00,0.00,OPEN,0
665664.454,1,0,0,1.000,1.000,0.989,-90.00,180.00,0.00,OPEN,0
665664.504,1,0,0,1.000,1.000,0.988,-90.00,180.00,0.00,OPEN,0
665664.554,1,0,0,1.000,1.000,0.957,-90.00,180.00,0.00,OPEN,0
665664.604,1,0,0,1.000,1.000,0.920,-90.00,180.00,0.00,OPEN,0
665664.654,1,0,0,1.000,1.000,0.942,-90.00,180.00,0.00,OPEN,0
665664.704,1,0,0,1.000,1.000,0.936,-90.00,180.00,0.00,OPEN,0
665664.754,1,0,0,1.000,1.000,0.935,-90.00,180.00,0.00,OPEN,0
665664.804,1,0,0,1.000,1.000,0.911,-90.00,180.00,0.00,OPEN,0
665664.854,1,0,0,1.000,1.000,0.908,-90.00,180.00,0.00,OPEN,0
665664.904,1,0,0,1.000,1.000,0.968,-90.00,180.00,0.00,OPEN,0
665664.954,1,0,0,1.000,1.000,0.969,-90.00,180.00,0.00,OPEN,0
665665.004,1,0,0,1.000,1.000,0.981,-90.00,180.00,0.00,OPEN,0
665665.054,1,0,0,1.000,1.000,0.995,-90.00,180.00,0.00,OPEN,0
665665.105,1,0,0,1.000,1.000,0.996,-90.00,180.00,0.00,OPEN,0
665665.154,1,0,0,1.000,1.000,0.996,-90.00,180.00,0.00,OPEN,0
665665.204,1,0,0,1.000,1.000,0.994,-90.00,180.00,0.00,OPEN,0
665665.254,1,0,0,1.000,1.000,0.990,-90.00,180.00,0.00,OPEN,0
665665.304,1,0,0,1.000,1.000,0.986,-90.00,180.00,0.00,OPEN,0
665665.353,1,0,0,1.000,1.000,0.987,-90.00,180.00,0.00,OPEN,0
665665.403,1,0,0,1.000,1.000,0.982,-90.00,180.00,0.00,OPEN,0
665665.454,1,0,0,1.000,1.000,0.978,-90.00,180.00,0.00,OPEN,0
665665.504,1,0,0,1.000,1.000,0.983,-90.00,180.00,0.00,OPEN,0
665665.554,1,0,0,1.000,1.000,0.988,-90.00,180.00,0.00,OPEN,0
665665.604,1,0,0,1.000,1.000,0.994,-90.00,180.00,0.00,OPEN,0
665665.654,1,0,0,1.000,1.000,0.994,-90.00,180.00,0.00,OPEN,0
665665.704,1,0,0,1.000,1.000,0.990,-90.00,180.00,0.00,OPEN,0
665665.754,1,0,0,1.000,1.000,0.991,-90.00,180.00,0.00,OPEN,0
665665.804,1,0,0,1.000,1.000,0.989,-90.00,180.00,0.00,OPEN,0
665665.854,1,0,0,1.000,1.000,0.986,-90.00,180.00,0.00,OPEN,0
665665.904,1,0,0,1.000,1.000,0.985,-90.00,180.00,0.00,OPEN,0
665665.954,1,0,0,1.000,1.000,0.981,-90.00,180.00,0.00,OPEN,0
665666.004,1,0,0,1.000,1.000,0.979,-90.00,180.00,0.00,OPEN,0
665666.055,1,0,0,1.000,1.000,0.988,-90.00,180.00,0.00,OPEN,0
665666.104,1,0,0,1.000,1.000,0.987,-90.00,180.00,0.00,OPEN,0
665666.154,1,0,0,1.000,1.000,0.987,-90.00,180.00,0.00,OPEN,0
665666.204,1,0,0,1.000,1.000,0.987,-90.00,180.00,0.00,OPEN,0
665666.254,1,0,0,1.000,1.000,0.990,-90.00,180.00,0.00,OPEN,0
665666.304,1,0,0,1.000,1.000,0.994,-90.00,180.00,0.00,OPEN,0
665666.354,1,0,0,1.000,1.000,0.989,-90.00,180.00,0.00,OPEN,0
665666.404,1,0,0,1.000,1.000,0.987,-90.00,180.00,0.00,OPEN,0
665666.454,1,0,0,1.000,1.000,0.987,-90.00,180.00,0.00,OPEN,0
665666.504,1,0,0,1.000,1.000,0.990,-90.00,180.00,0.00,OPEN,0
665666.554,1,0,0,1.000,1.000,0.981,-90.00,180.00,0.00,OPEN,0
665666.604,1,0,0,1.000,1.000,0.979,-90.00,180.00,0.00,OPEN,0
665666.654,1,0,0,1.000,1.000,0.985,-90.00,180.00,0.00,OPEN,0
665666.704,1,0,0,1.000,1.000,1.000,-90.00,180.00,0.00,OPEN,0
665666.768,1,0,0,1.000,1.000,1.000,-90.00,180.00,0.00,OPEN,0
665666.812,1,0,0,1.000,1.000,1.000,-90.00,180.00,0.00,OPEN,0
665666.854,1,0,0,1.000,1.000,1.000,-90.00,180.00,0.00,OPEN,0
665666.904,1,0,0,1.000,1.000,1.000,-90.00,180.00,0.00,OPEN,0
665666.954,1,0,0,1.000,1.000,1.000,-90.00,180.00,0.00,OPEN,0
665667.004,1,0,0,1.000,1.000,1.000,-90.00,180.00,0.00,OPEN,0
665667.054,1,0,0,1.000,1.000,1.000,-90.00,180.00,0.00,OPEN,0
665667.104,1,0,0,1.000,1.000,1.000,-90.00,180.00,0.00,OPEN,0
665667.155,1,0,0,1.000,1.000,1.000,-90.00,180.00,0.00,OPEN,0
665667.204,1,0,0,1.000,1.000,1.000,-90.00,180.00,0.00,OPEN,0
665667.254,1,0,0,1.000,1.000,1.000,-90.00,180.00,0.00,OPEN,0
665667.304,1,0,0,1.000,1.000,1.000,-90.00,180.00,0.00,OPEN,0
665667.353,1,0,0,1.000,1.000,1.000,-90.00,180.00,0.00,OPEN,0
665667.403,1,0,0,1.000,1.000,1.000,-90.00,180.00,0.00,OPEN,0
665667.454,1,0,0,1.000,1.000,1.000,-90.00,180.00,0.00,OPEN,0
665667.503,1,0,0,1.000,1.000,1.000,-90.00,180.00,0.00,OPEN,0
665667.554,1,1,1,1.000,1.000,1.000,-90.00,180.00,0.00,OPEN,0
665667.604,1,1,1,1.000,1.000,0.924,-90.00,180.00,0.00,OPEN,0
665667.654,1,1,1,1.000,1.000,0.700,-90.00,180.00,0.00,OPEN,0
665667.704,1,1,1,1.000,1.000,0.790,-90.00,180.00,0.00,OPEN,0
665667.754,1,1,1,1.000,1.000,1.000,-90.00,180.00,0.00,OPEN,0
665667.803,1,1,1,1.000,1.000,1.000,-90.00,180.00,0.00,OPEN,0
665667.853,1,1,1,1.000,1.000,1.000,-90.00,180.00,0.00,OPEN,0
665667.903,1,1,1,0.773,1.000,1.000,-90.00,180.00,0.00,OPEN,0
665667.953,1,1,1,1.000,1.000,1.000,-90.00,180.00,0.00,OPEN,0
665668.004,1,1,1,1.000,1.000,1.000,-90.00,180.00,0.00,OPEN,0
665668.054,1,1,1,1.000,1.000,1.000,-90.00,180.00,0.00,OPEN,0
665668.103,1,1,1,1.000,1.000,1.000,-90.00,180.00,0.00,OPEN,0
665668.154,1,1,1,1.000,1.000,1.000,-90.00,180.00,0.00,OPEN,0
665668.219,1,1,1,1.000,1.000,1.000,-90.00,180.00,0.00,OPEN,0
665668.255,1,1,1,1.000,0.522,0.982,-90.00,180.00,0.00,OPEN,0
665668.304,0,1,1,1.000,0.998,0.732,-90.00,180.00,0.00,OPEN,0
665668.353,0,1,1,1.000,1.000,0.598,-90.00,180.00,0.00,OPEN,0
665668.403,0,1,1,1.000,1.000,0.546,-90.00,180.00,0.00,OPEN,0
665668.454,0,1,1,1.000,1.000,0.600,-90.00,180.00,0.00,OPEN,0
665668.504,0,1,1,1.000,1.000,0.996,-90.00,180.00,0.00,OPEN,0
665668.554,0,0,1,1.000,1.000,0.976,-90.00,180.00,0.00,OPEN,0
665668.603,0,0,1,1.000,1.000,0.959,-90.00,180.00,0.00,OPEN,0
665668.654,0,0,0,1.000,1.000,0.984,-90.00,180.00,0.00,OPEN,0
665668.703,0,0,0,1.000,0.992,0.988,-90.00,180.00,0.00,OPEN,0
665668.753,0,0,0,1.000,0.973,0.978,-90.00,180.00,0.00,OPEN,0
665668.804,0,0,0,1.000,0.743,0.999,-90.00,180.00,0.00,OPEN,0
665668.853,0,0,0,1.000,1.000,1.000,-90.00,180.00,0.00,OPEN,0
665668.903,0,0,0,1.000,1.000,0.995,-90.00,180.00,0.00,OPEN,0
665668.953,0,0,0,1.000,0.810,0.803,-90.00,180.00,0.00,OPEN,0
665669.003,0,0,0,1.000,0.977,0.574,-90.00,180.00,0.00,OPEN,0
665669.053,0,0,0,1.000,0.949,0.637,-90.00,180.00,0.00,OPEN,0
665669.104,0,0,0,1.000,0.778,0.794,-90.00,180.00,0.00,OPEN,0
665669.153,0,0,0,1.000,0.995,0.992,-90.00,180.00,0.00,OPEN,0
665669.203,0,0,0,1.000,1.000,1.000,-90.00,180.00,0.00,OPEN,0
665669.253,0,0,0,1.000,1.000,1.000,-90.00,180.00,0.00,OPEN,0
665669.304,0,0,0,1.000,1.000,1.000,-90.00,180.00,0.00,OPEN,0
665669.354,0,0,0,1.000,1.000,1.000,-90.00,180.00,0.00,OPEN,0
665669.404,0,0,0,1.000,1.000,1.000,-90.00,180.00,0.00,OPEN,0
665669.454,0,0,0,1.000,1.000,1.000,-90.00,180.00,0.00,OPEN,0
665669.503,0,0,0,1.000,1.000,1.000,-90.00,180.00,0.00,OPEN,0
665669.553,0,0,0,1.000,1.000,0.956,-90.00,180.00,0.00,OPEN,0
665669.603,0,0,0,1.000,1.000,0.562,-90.00,180.00,0.00,OPEN,0
665669.654,0,0,0,1.000,1.000,1.000,-90.00,180.00,0.00,OPEN,0
665669.704,0,0,0,1.000,1.000,1.000,-90.00,180.00,0.00,OPEN,0
665669.754,0,0,0,1.000,1.000,1.000,-90.00,180.00,0.00,OPEN,0
665669.804,0,0,0,1.000,1.000,1.000,-90.00,180.00,0.00,OPEN,0
665669.854,0,0,0,1.000,1.000,1.000,-90.00,180.00,0.00,OPEN,0
665669.904,0,0,0,1.000,1.000,1.000,-90.00,180.00,0.00,OPEN,0
665669.954,0,0,0,1.000,1.000,1.000,-90.00,180.00,0.00,OPEN,0
665670.003,0,0,0,1.000,1.000,1.000,-90.00,180.00,0.00,OPEN,0
665670.053,0,0,0,1.000,1.000,1.000,-90.00,180.00,0.00,OPEN,0
665670.103,0,0,0,1.000,1.000,1.000,-90.00,180.00,0.00,OPEN,0
665670.154,0,0,0,1.000,1.000,1.000,-90.00,180.00,0.00,OPEN,0
665670.203,0,0,0,1.000,1.000,1.000,-90.00,180.00,0.00,OPEN,0
665670.253,0,0,0,1.000,1.000,1.000,-90.00,180.00,0.00,OPEN,0
665670.303,0,0,0,1.000,1.000,1.000,-90.00,180.00,0.00,OPEN,0
665670.355,0,0,0,1.000,1.000,1.000,-90.00,180.00,0.00,OPEN,0
665670.405,0,0,0,1.000,1.000,1.000,-90.00,180.00,0.00,OPEN,0
665670.453,0,0,0,1.000,1.000,1.000,-90.00,180.00,0.00,OPEN,0
665670.503,0,0,0,1.000,0.999,1.000,-90.00,180.00,0.00,OPEN,0
665670.554,0,0,0,1.000,0.847,0.986,-90.00,180.00,0.00,OPEN,0
665670.604,0,0,0,1.000,1.000,0.759,-90.00,180.00,0.00,OPEN,0
665670.654,0,0,0,1.000,1.000,0.965,-90.00,180.00,0.00,OPEN,0
665670.703,0,0,0,1.000,1.000,0.994,-90.00,180.00,0.00,OPEN,0
665670.753,0,0,0,1.000,1.000,0.994,-90.00,180.00,0.00,OPEN,0
665670.804,0,0,0,1.000,1.000,0.993,-90.00,180.00,0.00,OPEN,0
665670.853,0,0,0,1.000,1.000,0.991,-90.00,180.00,0.00,OPEN,0
665670.904,0,0,0,1.000,1.000,0.987,-90.00,180.00,0.00,OPEN,0
665670.954,0,0,0,1.000,1.000,0.991,-90.00,180.00,0.00,OPEN,0
665671.003,0,0,1,1.000,1.000,0.995,-90.00,180.00,0.00,OPEN,0
665671.054,0,0,1,1.000,1.000,0.993,-90.00,180.00,0.00,OPEN,0
665671.103,0,0,1,1.000,1.000,0.985,-90.00,180.00,0.00,OPEN,0
665671.153,0,0,1,1.000,1.000,0.981,-90.00,180.00,0.00,OPEN,0
665671.204,0,0,1,1.000,1.000,0.991,-90.00,180.00,0.00,OPEN,0
665671.254,0,0,1,1.000,1.000,0.989,-90.00,180.00,0.00,OPEN,0
665671.303,0,0,1,1.000,1.000,0.980,-90.00,180.00,0.00,OPEN,0
665671.353,0,0,1,1.000,1.000,0.959,-90.00,180.00,0.00,OPEN,0
665671.404,0,0,1,1.000,1.000,0.587,-90.00,180.00,0.00,OPEN,0
665671.454,0,0,1,1.000,1.000,0.505,-90.00,180.00,0.00,OPEN,0
665671.505,0,0,1,1.000,1.000,0.514,-90.00,180.00,0.00,OPEN,0
665671.554,0,0,1,1.000,1.000,0.504,-90.00,180.00,0.00,OPEN,0
665671.604,0,0,1,1.000,1.000,0.527,-90.00,180.00,0.00,OPEN,0
665671.654,0,0,1,1.000,1.000,0.761,-90.00,180.00,0.00,OPEN,0
665671.704,0,0,1,1.000,1.000,0.892,-90.00,180.00,0.00,OPEN,0
665671.753,0,0,1,1.000,1.000,0.929,-90.00,180.00,0.00,OPEN,0
665671.803,0,0,1,1.000,1.000,0.940,-90.00,180.00,0.00,OPEN,0
665671.854,0,0,1,1.000,1.000,0.913,-90.00,180.00,0.00,OPEN,0
665671.904,0,0,1,1.000,1.000,0.912,-90.00,180.00,0.00,OPEN,0
665671.953,0,0,1,1.000,1.000,0.848,-90.00,180.00,0.00,OPEN,0
665672.004,0,0,1,1.000,1.000,0.874,-90.00,180.00,0.00,OPEN,0
665672.053,0,0,1,1.000,1.000,0.876,-90.00,180.00,0.00,OPEN,0
665672.103,0,0,1,1.000,1.000,0.909,-90.00,180.00,0.00,OPEN,0
665672.153,0,0,1,1.000,1.000,0.925,-90.00,180.00,0.00,OPEN,0
665672.205,0,0,1,1.000,1.000,0.970,-90.00,180.00,0.00,OPEN,0
665672.253,0,0,1,1.000,1.000,0.980,-90.00,180.00,0.00,OPEN,0
665672.304,0,0,1,1.000,1.000,0.982,-90.00,180.00,0.00,OPEN,0
665672.354,0,0,1,1.000,1.000,0.990,-90.00,180.00,0.00,OPEN,0
665672.404,0,0,1,1.000,1.000,0.993,-90.00,180.00,0.00,OPEN,0
665672.454,0,0,1,1.000,1.000,0.991,-90.00,180.00,0.00,OPEN,0
665672.503,0,0,1,1.000,1.000,0.993,-90.00,180.00,0.00,OPEN,0
665672.554,0,0,1,1.000,1.000,0.995,-90.00,180.00,0.00,OPEN,0
665672.604,0,0,1,1.000,1.000,0.995,-90.00,180.00,0.00,OPEN,0
665672.653,0,0,1,1.000,1.000,0.996,-90.00,180.00,0.00,OPEN,0
665672.703,0,0,1,1.000,1.000,0.997,-90.00,180.00,0.00,OPEN,0
665672.763,0,0,1,1.000,1.000,0.988,-90.00,180.00,0.00,OPEN,0
665672.805,0,0,1,1.000,1.000,0.949,-90.00,180.00,0.00,OPEN,0
665672.853,0,0,1,1.000,1.000,0.769,-90.00,180.00,0.00,OPEN,0
665672.904,0,0,1,1.000,1.000,0.682,-90.00,180.00,0.00,OPEN,0
665672.953,0,0,1,1.000,1.000,0.598,-90.00,180.00,0.00,OPEN,0
665673.003,0,0,1,1.000,1.000,0.619,-90.00,180.00,0.00,OPEN,0
665673.054,0,0,1,1.000,1.000,0.518,-90.00,180.00,0.00,OPEN,0
665673.105,0,0,1,1.000,1.000,0.527,-90.00,180.00,0.00,OPEN,0
665673.153,0,0,1,1.000,1.000,0.560,-90.00,180.00,0.00,OPEN,0
665673.204,0,0,1,1.000,1.000,0.534,-90.00,180.00,0.00,OPEN,0
665673.254,0,0,1,1.000,1.000,0.687,-90.00,180.00,0.00,OPEN,0
665673.303,0,0,1,1.000,1.000,0.702,-90.00,180.00,0.00,OPEN,0
665673.354,0,0,1,1.000,1.000,0.818,-90.00,180.00,0.00,OPEN,0
665673.404,0,0,1,1.000,1.000,0.739,-90.00,180.00,0.00,OPEN,0
665673.453,0,0,1,1.000,1.000,0.771,-90.00,180.00,0.00,OPEN,0
665673.504,0,0,1,1.000,1.000,0.750,-90.00,180.00,0.00,OPEN,0
665673.553,0,0,1,1.000,1.000,0.721,-90.00,180.00,0.00,OPEN,0
665673.603,0,0,1,1.000,1.000,0.617,-90.00,180.00,0.00,OPEN,0
665673.654,0,0,1,1.000,1.000,0.580,-90.00,180.00,0.00,OPEN,0
665673.704,0,0,1,1.000,1.000,0.666,-90.00,180.00,0.00,OPEN,0
665673.754,0,0,1,1.000,1.000,0.615,-90.00,180.00,0.00,OPEN,0
665673.804,0,0,1,1.000,1.000,0.527,-90.00,180.00,0.00,OPEN,0
665673.854,0,0,1,1.000,1.000,0.607,-90.00,180.00,0.00,OPEN,0
665673.904,0,0,1,1.000,1.000,0.608,-90.00,180.00,0.00,OPEN,0
665673.953,0,0,1,1.000,1.000,0.708,-90.00,180.00,0.00,OPEN,0
665674.004,0,0,1,1.000,1.000,0.855,-90.00,180.00,0.00,OPEN,0
665674.053,0,0,1,1.000,1.000,0.816,-90.00,180.00,0.00,OPEN,0
665674.103,0,0,1,1.000,1.000,0.858,-90.00,180.00,0.00,OPEN,0
665674.153,0,0,1,1.000,1.000,0.850,-90.00,180.00,0.00,OPEN,0
665674.204,0,0,1,1.000,1.000,0.653,-90.00,180.00,0.00,OPEN,0
665674.253,0,0,1,1.000,1.000,0.612,-90.00,180.00,0.00,OPEN,0
665674.304,0,0,1,1.000,1.000,0.638,-90.00,180.00,0.00,OPEN,0
665674.354,0,0,1,1.000,1.000,0.707,-90.00,180.00,0.00,OPEN,0
665674.403,0,0,1,1.000,1.000,0.766,-90.00,180.00,0.00,OPEN,0
665674.453,0,0,1,1.000,1.000,0.682,-90.00,180.00,0.00,OPEN,0
665674.504,0,0,1,1.000,1.000,0.505,-90.00,180.00,0.00,OPEN,0
665674.561,0,0,1,1.000,1.000,0.640,-90.00,180.00,0.00,OPEN,0
665674.605,0,0,1,1.000,1.000,0.733,-90.00,180.00,0.00,OPEN,0
665674.654,0,0,1,1.000,1.000,1.000,-90.00,180.00,0.00,OPEN,0
665674.704,0,0,1,1.000,1.000,1.000,-90.00,180.00,0.00,OPEN,0
665674.753,0,0,1,1.000,1.000,1.000,-90.00,180.00,0.00,OPEN,0
665674.803,0,0,1,1.000,1.000,1.000,-90.00,180.00,0.00,OPEN,0
665674.853,0,0,1,1.000,1.000,1.000,-90.00,180.00,0.00,OPEN,0
665674.903,0,0,1,1.000,1.000,1.000,-90.00,180.00,0.00,OPEN,0
665674.954,0,0,1,1.000,1.000,1.000,-90.00,180.00,0.00,OPEN,0
665675.004,0,0,1,1.000,1.000,1.000,-90.00,180.00,0.00,OPEN,0
665675.053,0,0,1,1.000,1.000,1.000,-90.00,180.00,0.00,OPEN,0
665675.103,0,0,1,1.000,1.000,1.000,-90.00,180.00,0.00,OPEN,0
665675.153,0,0,1,0.984,1.000,1.000,-90.00,180.00,0.00,OPEN,0
665675.204,0,0,1,0.985,1.000,1.000,-90.00,180.00,0.00,OPEN,0
665675.254,0,0,1,0.968,1.000,1.000,-90.00,180.00,0.00,OPEN,0
665675.304,0,0,1,0.966,1.000,1.000,-90.00,180.00,0.00,OPEN,0
665675.354,0,0,1,0.962,1.000,1.000,-90.00,180.00,0.00,OPEN,0
665675.403,0,0,1,0.957,1.000,1.000,-90.00,180.00,0.00,OPEN,0
665675.454,0,0,0,0.937,1.000,1.000,-90.00,180.00,0.00,OPEN,0
665675.504,0,0,0,0.984,1.000,1.000,-90.00,180.00,0.00,OPEN,0
665675.553,0,0,0,0.999,1.000,1.000,-90.00,180.00,0.00,OPEN,0
665675.603,0,0,0,1.000,1.000,1.000,-90.00,180.00,0.00,OPEN,0
665675.654,0,0,0,1.000,0.985,0.999,-90.00,180.00,0.00,OPEN,0
665675.704,0,0,0,1.000,1.000,1.000,-90.00,180.00,0.00,OPEN,0
665675.754,0,0,0,1.000,1.000,1.000,-90.00,180.00,0.00,OPEN,0
665675.804,0,0,0,1.000,0.997,1.000,-90.00,180.00,0.00,OPEN,0
665675.853,2,0,0,1.000,1.000,1.000,-90.00,180.00,0.00,OPEN,0
665675.921,2,0,0,1.000,1.000,1.000,-90.00,180.00,0.00,OPEN,0
665675.956,2,0,0,1.000,1.000,1.000,-90.00,180.00,0.00,OPEN,0
665676.004,2,0,0,1.000,1.000,1.000,-90.00,180.00,0.00,OPEN,0
665676.054,2,1,1,1.000,0.996,0.988,-90.00,180.00,0.00,OPEN,0
665676.105,2,1,1,1.000,0.999,0.980,-90.00,180.00,0.00,OPEN,0
665676.154,2,1,1,1.000,0.999,0.977,-90.00,180.00,0.00,OPEN,0
665676.203,2,1,1,1.000,0.998,0.962,-90.00,180.00,0.00,OPEN,0
665676.254,2,1,1,1.000,0.958,0.800,-90.00,180.00,0.00,OPEN,0
665676.304,2,1,1,1.000,1.000,0.998,-90.00,180.00,0.00,OPEN,0
665676.353,2,1,1,1.000,1.000,1.000,-90.00,180.00,0.00,OPEN,0
665676.404,2,1,1,1.000,1.000,1.000,-90.00,180.00,0.00,OPEN,0
665676.454,2,1,1,1.000,1.000,1.000,-90.00,180.00,0.00,OPEN,0
665676.503,2,1,1,1.000,1.000,1.000,-90.00,180.00,0.00,OPEN,0
665676.553,2,1,1,1.000,1.000,1.000,-90.00,180.00,0.00,OPEN,0
665676.603,2,1,1,1.000,1.000,1.000,-90.00,180.00,0.00,OPEN,0
665676.653,2,1,1,1.000,1.000,1.000,-90.00,180.00,0.00,OPEN,0
665676.703,2,1,1,1.000,1.000,1.000,-90.00,180.00,0.00,OPEN,0
665676.753,2,1,1,1.000,1.000,1.000,-90.00,180.00,0.00,OPEN,0
665676.804,2,1,1,1.000,1.000,1.000,-90.00,180.00,0.00,OPEN,0
665676.854,2,1,1,1.000,1.000,1.000,-90.00,180.00,0.00,OPEN,0
665676.905,2,1,1,1.000,1.000,1.000,-90.00,180.00,0.00,OPEN,0
665676.954,2,1,1,1.000,1.000,1.000,-90.00,180.00,0.00,OPEN,0
665677.003,2,1,1,1.000,1.000,1.000,-90.00,180.00,0.00,OPEN,0
665677.053,2,1,1,1.000,1.000,1.000,-90.00,180.00,0.00,OPEN,0
665677.105,2,1,1,1.000,1.000,1.000,-90.00,180.00,0.00,OPEN,0
665677.154,2,0,0,1.000,1.000,1.000,-90.00,180.00,0.00,OPEN,0
665677.204,2,0,0,1.000,1.000,1.000,-90.00,180.00,0.00,OPEN,0
665677.253,2,0,0,1.000,1.000,1.000,-90.00,180.00,0.00,OPEN,0
665677.303,2,0,0,1.000,1.000,1.000,-90.00,180.00,0.00,OPEN,0
665677.354,2,0,0,1.000,1.000,1.000,-90.00,180.00,0.00,OPEN,0
665677.403,2,0,0,1.000,1.000,1.000,-90.00,180.00,0.00,OPEN,0
665677.455,2,0,0,1.000,1.000,1.000,-90.00,180.00,0.00,OPEN,0
665677.503,2,0,0,1.000,1.000,1.000,-90.00,180.00,0.00,OPEN,0
665677.554,2,0,0,1.000,1.000,1.000,-90.00,180.00,0.00,OPEN,0
665677.603,2,0,0,1.000,1.000,1.000,-90.00,180.00,0.00,OPEN,0
665677.653,2,0,0,1.000,1.000,1.000,-90.00,180.00,0.00,OPEN,0
665677.704,2,0,0,1.000,1.000,1.000,-90.00,180.00,0.00,OPEN,0
665677.753,2,0,0,1.000,1.000,1.000,-90.00,180.00,0.00,OPEN,0
665677.803,2,0,0,1.000,1.000,1.000,-90.00,180.00,0.00,OPEN,0
665677.854,2,0,0,1.000,1.000,1.000,-90.00,180.00,0.00,OPEN,0
665677.903,2,0,0,1.000,1.000,1.000,-90.00,180.00,0.00,OPEN,0
665677.954,2,0,0,1.000,1.000,1.000,-90.00,180.00,0.00,OPEN,0
665678.004,2,0,0,1.000,1.000,1.000,-90.00,180.00,0.00,OPEN,0
665678.054,2,0,0,1.000,1.000,1.000,-90.00,180.00,0.00,OPEN,0
665678.103,2,0,0,1.000,1.000,1.000,-90.00,180.00,0.00,OPEN,0
665678.154,2,0,0,1.000,1.000,1.000,-90.00,180.00,0.00,OPEN,0
665678.204,2,0,0,1.000,1.000,1.000,-90.00,180.00,0.00,OPEN,0
665678.254,2,0,0,1.000,1.000,1.000,-90.00,180.00,0.00,OPEN,0
665678.305,2,0,0,1.000,1.000,1.000,-90.00,180.00,0.00,OPEN,0
665678.353,2,0,0,1.000,1.000,1.000,-90.00,180.00,0.00,OPEN,0
665678.404,2,0,0,1.000,1.000,1.000,-90.00,180.00,0.00,OPEN,0
665678.454,2,0,0,1.000,1.000,1.000,-90.00,180.00,0.00,OPEN,0
665678.505,2,0,0,1.000,1.000,1.000,-90.00,180.00,0.00,OPEN,0
665678.554,2,0,0,1.000,1.000,1.000,-90.00,180.00,0.00,OPEN,0
665678.604,2,0,0,1.000,1.000,1.000,-90.00,180.00,0.00,OPEN,0
665678.654,2,0,0,1.000,1.000,1.000,-90.00,180.00,0.00,OPEN,0
665678.703,2,0,0,1.000,1.000,1.000,-90.00,180.00,0.00,OPEN,0
665678.754,2,0,0,1.000,1.000,1.000,-90.00,180.00,0.00,OPEN,0
665678.804,2,0,0,1.000,1.000,1.000,-90.00,180.00,0.00,OPEN,0
665678.854,2,0,0,1.000,1.000,1.000,-90.00,180.00,0.00,OPEN,0
665678.903,2,0,0,1.000,1.000,1.000,-90.00,180.00,0.00,OPEN,0
665678.953,2,0,0,1.000,1.000,1.000,-90.00,180.00,0.00,OPEN,0
665679.004,2,0,0,1.000,1.000,1.000,-90.00,180.00,0.00,OPEN,0
665679.054,2,0,0,1.000,1.000,1.000,-90.00,180.00,0.00,OPEN,0
665679.104,2,0,0,1.000,1.000,1.000,-90.00,180.00,0.00,OPEN,0
665679.154,2,0,0,1.000,1.000,1.000,-90.00,180.00,0.00,OPEN,0
665679.204,2,0,0,1.000,1.000,1.000,-90.00,180.00,0.00,OPEN,0
665679.253,2,0,0,1.000,1.000,1.000,-90.00,180.00,0.00,OPEN,0
665679.304,2,0,0,1.000,1.000,1.000,-90.00,180.00,0.00,OPEN,0
665679.355,2,0,0,1.000,1.000,1.000,-90.00,180.00,0.00,OPEN,0
665679.403,2,0,0,1.000,1.000,1.000,-90.00,180.00,0.00,OPEN,0
665679.454,2,0,0,1.000,1.000,1.000,-90.00,180.00,0.00,OPEN,0
665679.504,2,0,0,1.000,1.000,1.000,-90.00,180.00,0.00,OPEN,0
665679.554,2,0,0,1.000,1.000,1.000,-90.00,180.00,0.00,OPEN,0
665679.612,2,0,0,1.000,1.000,1.000,-90.00,180.00,0.00,OPEN,0
665679.655,2,0,0,1.000,1.000,1.000,-90.00,180.00,0.00,OPEN,0
665679.703,2,0,0,1.000,1.000,1.000,-90.00,180.00,0.00,OPEN,0
665679.753,2,0,0,1.000,1.000,1.000,-90.00,180.00,0.00,OPEN,0
665679.804,2,0,0,1.000,1.000,1.000,-90.00,180.00,0.00,OPEN,0
665679.853,2,0,0,1.000,1.000,1.000,-90.00,180.00,0.00,OPEN,0
665679.903,2,0,0,1.000,1.000,1.000,-90.00,180.00,0.00,OPEN,0
665679.954,2,0,0,1.000,1.000,1.000,-90.00,180.00,0.00,OPEN,0
665680.003,2,0,0,1.000,1.000,1.000,-90.00,180.00,0.00,OPEN,0
665680.054,2,0,0,1.000,1.000,1.000,-90.00,180.00,0.00,OPEN,0
665680.105,2,0,0,1.000,1.000,1.000,-90.00,180.00,0.00,OPEN,0
665680.154,2,0,0,1.000,1.000,1.000,-90.00,180.00,0.00,OPEN,0
665680.204,2,0,0,1.000,1.000,1.000,-90.00,180.00,0.00,OPEN,0
665680.253,2,0,0,1.000,1.000,1.000,-90.00,180.00,0.00,OPEN,0
665680.304,2,0,0,1.000,1.000,1.000,-90.00,180.00,0.00,OPEN,0
665680.353,2,0,0,1.000,1.000,1.000,-90.00,180.00,0.00,OPEN,0
665680.404,2,0,0,1.000,1.000,1.000,-90.00,180.00,0.00,OPEN,0
665680.454,2,0,0,1.000,1.000,1.000,-90.00,180.00,0.00,OPEN,0
665680.503,2,0,0,1.000,1.000,1.000,-90.00,180.00,0.00,OPEN,0
665680.553,2,0,0,1.000,1.000,1.000,-90.00,180.00,0.00,OPEN,0
665680.604,2,0,0,1.000,1.000,1.000,-90.00,180.00,0.00,OPEN,0
665680.654,2,0,0,1.000,1.000,1.000,-90.00,180.00,0.00,OPEN,0
665680.704,2,0,0,1.000,1.000,1.000,-90.00,180.00,0.00,OPEN,0
665680.754,2,0,0,1.000,1.000,1.000,-90.00,180.00,0.00,OPEN,0
665680.803,2,0,0,1.000,1.000,1.000,-90.00,180.00,0.00,OPEN,0
665680.853,2,0,0,1.000,1.000,1.000,-90.00,180.00,0.00,OPEN,0
665680.904,2,0,0,1.000,1.000,1.000,-90.00,180.00,0.00,OPEN,0
665680.954,2,0,0,1.000,1.000,1.000,-90.00,180.00,0.00,OPEN,0
665681.003,2,0,0,1.000,1.000,1.000,-90.00,180.00,0.00,OPEN,0
665681.054,2,0,0,1.000,1.000,1.000,-90.00,180.00,0.00,OPEN,0
665681.103,2,0,0,1.000,1.000,1.000,-90.00,180.00,0.00,OPEN,0
665681.165,2,0,0,1.000,1.000,1.000,-90.00,180.00,0.00,OPEN,0
665681.205,2,0,0,1.000,1.000,1.000,-90.00,180.00,0.00,OPEN,0
665681.254,2,0,0,1.000,1.000,1.000,-90.00,180.00,0.00,OPEN,0
665681.303,2,0,0,1.000,1.000,1.000,-90.00,180.00,0.00,OPEN,0
665681.354,2,0,0,1.000,1.000,1.000,-90.00,180.00,0.00,OPEN,0
665681.404,2,0,0,0.999,1.000,1.000,-90.00,180.00,0.00,OPEN,0
665681.454,2,0,0,0.998,1.000,1.000,-90.00,180.00,0.00,OPEN,0
665681.503,2,0,0,0.994,1.000,1.000,-90.00,180.00,0.00,OPEN,0
665681.554,2,0,0,0.963,1.000,1.000,-90.00,180.00,0.00,OPEN,0
665681.603,2,0,0,0.904,1.000,1.000,-90.00,180.00,0.00,OPEN,0
665681.657,2,0,0,0.723,1.000,1.000,-90.00,180.00,0.00,OPEN,0
665681.704,2,0,0,0.684,1.000,1.000,-90.00,180.00,0.00,OPEN,0
665681.753,2,0,0,0.927,1.000,1.000,-90.00,180.00,0.00,OPEN,0
665681.803,2,0,0,0.966,1.000,1.000,-90.00,180.00,0.00,OPEN,0
665681.855,2,0,0,0.999,1.000,1.000,-90.00,180.00,0.00,OPEN,0
665681.909,2,0,0,1.000,1.000,1.000,-90.00,180.00,0.00,OPEN,0
665681.954,2,0,0,1.000,1.000,1.000,-90.00,180.00,0.00,OPEN,0
665682.004,2,0,0,1.000,1.000,1.000,-90.00,180.00,0.00,OPEN,0
665682.054,2,0,0,1.000,1.000,1.000,-90.00,180.00,0.00,OPEN,0
665682.104,0,0,0,1.000,1.000,1.000,-90.00,180.00,0.00,OPEN,0
665682.154,0,0,0,1.000,1.000,1.000,-90.00,180.00,0.00,OPEN,0
665682.209,0,0,0,1.000,1.000,1.000,-90.00,180.00,0.00,OPEN,0
665682.254,0,0,0,1.000,1.000,1.000,-90.00,180.00,0.00,OPEN,0
665682.304,0,0,0,1.000,1.000,1.000,-90.00,180.00,0.00,OPEN,0
665682.354,0,0,0,1.000,1.000,1.000,-90.00,180.00,0.00,OPEN,0
665682.404,0,0,0,1.000,1.000,1.000,-90.00,180.00,0.00,OPEN,0
665682.454,0,0,0,1.000,1.000,1.000,-90.00,180.00,0.00,OPEN,0
665682.503,0,0,0,1.000,1.000,1.000,-90.00,180.00,0.00,OPEN,0
665682.553,0,0,0,1.000,1.000,1.000,-90.00,180.00,0.00,OPEN,0
665682.603,0,0,0,1.000,1.000,1.000,-90.00,180.00,0.00,OPEN,0
665682.654,0,0,0,1.000,1.000,1.000,-90.00,180.00,0.00,OPEN,0
665682.735,0,0,0,1.000,1.000,1.000,-90.00,180.00,0.00,OPEN,0
665682.759,0,0,0,1.000,1.000,1.000,-90.00,180.00,0.00,OPEN,0
665682.804,0,0,0,1.000,1.000,1.000,-90.00,180.00,0.00,OPEN,0
665682.854,0,0,0,1.000,1.000,1.000,-90.00,180.00,0.00,OPEN,0
665682.904,0,0,0,1.000,1.000,1.000,-90.00,180.00,0.00,OPEN,0
665682.955,0,0,0,1.000,1.000,1.000,-90.00,180.00,0.00,OPEN,0
665683.004,0,0,0,1.000,1.000,1.000,-90.00,180.00,0.00,OPEN,0
665683.054,0,0,0,1.000,1.000,1.000,-90.00,180.00,0.00,OPEN,0
665683.104,0,0,0,1.000,1.000,1.000,-90.00,180.00,0.00,OPEN,0
665683.154,0,0,0,1.000,1.000,1.000,-90.00,180.00,0.00,OPEN,0
665683.204,0,0,0,1.000,1.000,1.000,-90.00,180.00,0.00,OPEN,0
665683.254,0,0,0,1.000,1.000,1.000,-90.00,180.00,0.00,OPEN,0
665683.304,0,0,0,1.000,1.000,1.000,-90.00,180.00,0.00,OPEN,0
665683.354,0,0,0,1.000,1.000,1.000,-90.00,180.00,0.00,OPEN,0
665683.405,0,0,0,1.000,1.000,1.000,-90.00,180.00,0.00,OPEN,0
665683.453,0,0,0,1.000,1.000,1.000,-90.00,180.00,0.00,OPEN,0
665683.504,0,0,0,1.000,1.000,1.000,-90.00,180.00,0.00,OPEN,0
665683.554,0,0,0,1.000,1.000,1.000,-90.00,180.00,0.00,OPEN,0
665683.604,0,0,0,1.000,1.000,1.000,-90.00,180.00,0.00,OPEN,0
665683.653,0,0,0,1.000,1.000,1.000,-90.00,180.00,0.00,OPEN,0
665683.704,0,0,0,1.000,1.000,1.000,-90.00,180.00,0.00,OPEN,0
665683.754,0,0,0,1.000,1.000,1.000,-90.00,180.00,0.00,OPEN,0
665683.803,0,0,0,1.000,1.000,1.000,-90.00,180.00,0.00,OPEN,0
665683.854,0,0,0,1.000,1.000,1.000,-90.00,180.00,0.00,OPEN,0
665683.904,0,0,0,1.000,1.000,1.000,-90.00,180.00,0.00,OPEN,0
665683.953,0,0,0,1.000,1.000,1.000,-90.00,180.00,0.00,OPEN,0
665684.004,0,0,0,1.000,1.000,1.000,-90.00,180.00,0.00,OPEN,0
665684.054,0,0,0,1.000,1.000,1.000,-90.00,180.00,0.00,OPEN,0
665684.103,0,0,0,1.000,1.000,1.000,-90.00,180.00,0.00,OPEN,0
665684.154,0,0,0,1.000,1.000,1.000,-90.00,180.00,0.00,OPEN,0
665684.203,0,0,0,1.000,1.000,1.000,-90.00,180.00,0.00,OPEN,0
665684.254,0,0,0,1.000,1.000,1.000,-90.00,180.00,0.00,OPEN,0
665684.304,0,0,0,1.000,1.000,1.000,-90.00,180.00,0.00,OPEN,0
665684.354,0,0,0,1.000,1.000,1.000,-90.00,180.00,0.00,OPEN,0
665684.404,0,0,0,1.000,1.000,1.000,-90.00,180.00,0.00,OPEN,0
665684.454,0,0,0,1.000,1.000,1.000,-90.00,180.00,0.00,OPEN,0
665684.504,0,0,0,1.000,1.000,1.000,-90.00,180.00,0.00,OPEN,0
665684.554,0,0,0,1.000,1.000,1.000,-90.00,180.00,0.00,OPEN,0
665684.603,0,0,0,1.000,1.000,1.000,-90.00,180.00,0.00,OPEN,0
665684.653,0,0,0,1.000,1.000,1.000,-90.00,180.00,0.00,OPEN,0
665684.704,0,0,0,1.000,1.000,1.000,-90.00,180.00,0.00,OPEN,0
665684.754,0,0,0,1.000,1.000,1.000,-90.00,180.00,0.00,OPEN,0
665684.803,0,0,0,1.000,1.000,1.000,-90.00,180.00,0.00,OPEN,0
665684.853,0,0,0,1.000,1.000,1.000,-90.00,180.00,0.00,OPEN,0
665684.903,0,0,0,1.000,1.000,1.000,-90.00,180.00,0.00,OPEN,0
665684.954,0,0,0,1.000,1.000,1.000,-90.00,180.00,0.00,OPEN,0
665685.004,0,0,0,1.000,1.000,1.000,-90.00,180.00,0.00,OPEN,0
665685.054,0,0,0,1.000,1.000,1.000,-90.00,180.00,0.00,OPEN,0
665685.106,0,0,0,1.000,1.000,1.000,-90.00,180.00,0.00,OPEN,0
665685.153,0,0,0,1.000,1.000,1.000,-90.00,180.00,0.00,OPEN,0
665685.203,0,0,0,1.000,1.000,1.000,-90.00,180.00,0.00,OPEN,0
665685.254,0,0,0,1.000,1.000,1.000,-90.00,180.00,0.00,OPEN,0
665685.304,0,0,0,1.000,1.000,1.000,-90.00,180.00,0.00,OPEN,0
665685.354,0,0,0,1.000,1.000,1.000,-90.00,180.00,0.00,OPEN,0
665685.404,0,0,0,1.000,1.000,1.000,-90.00,180.00,0.00,OPEN,0
665685.454,0,0,0,1.000,1.000,1.000,-90.00,180.00,0.00,OPEN,0
665685.504,0,0,0,1.000,1.000,1.000,-90.00,180.00,0.00,OPEN,0
665685.554,0,0,0,1.000,1.000,1.000,-90.00,180.00,0.00,OPEN,0
665685.603,0,0,0,1.000,1.000,1.000,-90.00,180.00,0.00,OPEN,0
665685.654,0,0,0,1.000,1.000,1.000,-90.00,180.00,0.00,OPEN,0
665685.703,0,0,0,1.000,1.000,1.000,-90.00,180.00,0.00,OPEN,0
665685.753,0,0,0,1.000,1.000,1.000,-90.00,180.00,0.00,OPEN,0
665685.804,0,0,0,1.000,1.000,1.000,-90.00,180.00,0.00,OPEN,0
665685.854,0,0,0,1.000,1.000,1.000,-90.00,180.00,0.00,OPEN,0
665685.903,0,0,0,1.000,1.000,1.000,-90.00,180.00,0.00,OPEN,0
665685.954,0,0,0,1.000,1.000,1.000,-90.00,180.00,0.00,OPEN,0
665686.004,0,0,0,1.000,1.000,1.000,-90.00,180.00,0.00,OPEN,0
665686.053,0,0,0,1.000,1.000,1.000,-90.00,180.00,0.00,OPEN,0
665686.104,0,0,0,1.000,1.000,1.000,-90.00,180.00,0.00,OPEN,0
665686.154,0,0,0,1.000,1.000,1.000,-90.00,180.00,0.00,OPEN,0
665686.204,0,0,0,1.000,1.000,1.000,-90.00,180.00,0.00,OPEN,0
665686.254,0,0,0,1.000,1.000,1.000,-90.00,180.00,0.00,OPEN,0
665686.303,0,0,0,1.000,1.000,1.000,-90.00,180.00,0.00,OPEN,0
665686.353,0,0,0,1.000,1.000,1.000,-90.00,180.00,0.00,OPEN,0
665686.403,0,0,0,1.000,1.000,1.000,-90.00,180.00,0.00,OPEN,0
665686.454,0,0,0,1.000,1.000,1.000,-90.00,180.00,0.00,OPEN,0
665686.507,0,0,0,1.000,1.000,1.000,-90.00,180.00,0.00,OPEN,0
665686.554,0,0,0,1.000,1.000,1.000,-90.00,180.00,0.00,OPEN,0
665686.605,0,0,0,1.000,1.000,1.000,-90.00,180.00,0.00,OPEN,0
665686.654,0,0,0,1.000,1.000,1.000,-90.00,180.00,0.00,OPEN,0
665686.703,0,0,0,1.000,1.000,1.000,-90.00,180.00,0.00,OPEN,0
665686.753,0,0,0,1.000,1.000,1.000,-90.00,180.00,0.00,OPEN,0
665686.803,0,0,0,1.000,1.000,1.000,-90.00,180.00,0.00,OPEN,0
665686.854,0,0,0,1.000,1.000,1.000,-90.00,180.00,0.00,OPEN,0
665686.904,0,0,0,1.000,1.000,1.000,-90.00,180.00,0.00,OPEN,0
665686.953,0,0,0,1.000,1.000,1.000,-90.00,180.00,0.00,OPEN,0
665687.003,0,0,0,1.000,1.000,1.000,-90.00,180.00,0.00,OPEN,0
665687.053,0,0,0,1.000,1.000,1.000,-90.00,180.00,0.00,OPEN,0
665687.104,0,0,0,1.000,1.000,1.000,-90.00,180.00,0.00,OPEN,0
665687.154,0,0,0,1.000,1.000,1.000,-90.00,180.00,0.00,OPEN,0
665687.204,0,0,0,0.999,1.000,1.000,-90.00,180.00,0.00,OPEN,0
665687.253,0,0,0,0.997,1.000,1.000,-90.00,180.00,0.00,OPEN,0
665687.303,0,0,0,0.997,1.000,1.000,-90.00,180.00,0.00,OPEN,0
665687.353,0,0,0,0.991,1.000,1.000,-90.00,180.00,0.00,OPEN,0
665687.404,0,0,0,0.989,1.000,1.000,-90.00,180.00,0.00,OPEN,0
665687.454,0,0,0,0.999,1.000,1.000,-90.00,180.00,0.00,OPEN,0
665687.504,0,0,0,1.000,1.000,1.000,-90.00,180.00,0.00,OPEN,0
665687.553,0,0,0,1.000,1.000,1.000,-90.00,180.00,0.00,OPEN,0
665687.603,0,0,0,1.000,1.000,1.000,-90.00,180.00,0.00,OPEN,0
665687.653,0,0,0,1.000,1.000,1.000,-90.00,180.00,0.00,OPEN,0
665687.704,0,0,0,1.000,1.000,1.000,-90.00,180.00,0.00,OPEN,0
665687.754,0,0,0,1.000,1.000,1.000,-90.00,180.00,0.00,OPEN,0
665687.803,0,0,0,1.000,1.000,1.000,-90.00,180.00,0.00,OPEN,0
665687.853,0,0,0,1.000,1.000,1.000,-90.00,180.00,0.00,OPEN,0
665687.904,0,0,0,1.000,1.000,1.000,-90.00,180.00,0.00,OPEN,0
665687.954,0,0,0,1.000,1.000,1.000,-90.00,180.00,0.00,OPEN,0
665688.003,0,0,0,1.000,1.000,1.000,-90.00,180.00,0.00,OPEN,0
665688.054,0,0,0,1.000,1.000,1.000,-90.00,180.00,0.00,OPEN,0
665688.103,0,0,0,1.000,1.000,1.000,-90.00,180.00,0.00,OPEN,0
665688.153,0,0,0,1.000,1.000,1.000,-90.00,180.00,0.00,OPEN,0
665688.203,0,0,0,1.000,1.000,1.000,-90.00,180.00,0.00,OPEN,0
665688.253,0,0,0,1.000,1.000,1.000,-90.00,180.00,0.00,OPEN,0
665688.304,0,0,0,1.000,1.000,1.000,-90.00,180.00,0.00,OPEN,0
665688.353,0,0,0,1.000,1.000,1.000,-90.00,180.00,0.00,OPEN,0
665688.403,0,0,0,1.000,1.000,1.000,-90.00,180.00,0.00,OPEN,0
665688.453,0,0,0,1.000,1.000,1.000,-90.00,180.00,0.00,OPEN,0
665688.504,0,0,0,1.000,1.000,1.000,-90.00,180.00,0.00,OPEN,0
665688.561,0,0,0,1.000,1.000,1.000,-90.00,180.00,0.00,OPEN,0
665688.609,0,0,0,1.000,1.000,1.000,-90.00,180.00,0.00,OPEN,0
665688.653,0,0,0,1.000,1.000,1.000,-90.00,180.00,0.00,OPEN,0
665688.703,0,0,0,1.000,1.000,1.000,-90.00,180.00,0.00,OPEN,0
665688.753,0,0,0,1.000,1.000,1.000,-90.00,180.00,0.00,OPEN,0
665688.804,0,0,0,0.863,1.000,1.000,-90.00,180.00,0.00,OPEN,0
665688.855,0,0,0,0.956,1.000,1.000,-90.00,180.00,0.00,OPEN,0
665688.903,0,0,0,0.993,1.000,1.000,-90.00,180.00,0.00,OPEN,0
665688.953,0,0,0,0.993,1.000,1.000,-90.00,180.00,0.00,OPEN,0
665689.004,0,0,0,0.970,1.000,1.000,-90.00,180.00,0.00,OPEN,0
665689.054,0,0,0,0.616,1.000,1.000,-90.00,180.00,0.00,OPEN,0
665689.103,0,0,0,0.909,1.000,1.000,-90.00,180.00,0.00,OPEN,0
665689.153,0,0,0,0.990,1.000,1.000,-90.00,180.00,0.00,OPEN,0
665689.203,0,0,0,0.994,1.000,1.000,-90.00,180.00,0.00,OPEN,0
665689.253,0,0,0,0.995,1.000,1.000,-90.00,180.00,0.00,OPEN,0
665689.305,0,0,0,0.996,1.000,1.000,-90.00,180.00,0.00,OPEN,0
665689.354,0,0,0,0.995,1.000,1.000,-90.00,180.00,0.00,OPEN,0
665689.403,0,0,0,0.993,1.000,1.000,-90.00,180.00,0.00,OPEN,0
665689.453,3,0,0,0.990,1.000,1.000,-90.00,180.00,0.00,OPEN,0
665689.504,3,0,0,0.985,1.000,1.000,-90.00,180.00,0.00,OPEN,0
665689.553,3,0,0,0.983,1.000,1.000,-90.00,180.00,0.00,OPEN,0
665689.604,3,0,0,0.985,1.000,1.000,-90.00,180.00,0.00,OPEN,0
665689.654,3,0,0,0.989,1.000,1.000,-90.00,180.00,0.00,OPEN,0
665689.703,3,0,0,0.995,1.000,1.000,-90.00,180.00,0.00,OPEN,0
665689.754,3,0,0,0.997,1.000,1.000,-90.00,180.00,0.00,OPEN,0
665689.803,3,0,0,0.999,1.000,1.000,-90.00,180.00,0.00,OPEN,0
665689.854,3,0,0,0.999,1.000,1.000,-90.00,180.00,0.00,OPEN,0
665689.904,3,0,0,1.000,1.000,1.000,-90.00,180.00,0.00,OPEN,0
665689.953,3,0,0,1.000,1.000,1.000,-90.00,180.00,0.00,OPEN,0
665690.004,3,0,0,1.000,1.000,1.000,-90.00,180.00,0.00,OPEN,0
665690.054,3,0,0,1.000,1.000,1.000,-90.00,180.00,0.00,OPEN,0
665690.103,3,0,0,1.000,1.000,1.000,-90.00,180.00,0.00,OPEN,0
665690.154,3,0,0,1.000,1.000,1.000,-90.00,180.00,0.00,OPEN,0
665690.204,3,0,0,1.000,1.000,1.000,-90.00,180.00,0.00,OPEN,0
665690.254,3,0,0,1.000,1.000,1.000,-90.00,180.00,0.00,OPEN,0
665690.304,3,0,0,1.000,1.000,1.000,-90.00,180.00,0.00,OPEN,0
665690.354,3,0,0,1.000,1.000,1.000,-90.00,180.00,0.00,OPEN,0
665690.404,3,0,0,1.000,1.000,1.000,-90.00,180.00,0.00,OPEN,0
665690.455,3,0,0,1.000,1.000,1.000,-90.00,180.00,0.00,OPEN,0
665690.503,3,0,0,1.000,1.000,1.000,-90.00,180.00,0.00,OPEN,0
665690.553,3,0,0,1.000,1.000,1.000,-90.00,180.00,0.00,OPEN,0
665690.604,3,0,0,1.000,1.000,1.000,-90.00,180.00,0.00,OPEN,0
665690.654,3,0,0,1.000,1.000,1.000,-90.00,180.00,0.00,OPEN,0
665690.705,3,0,0,0.999,1.000,1.000,-90.00,180.00,0.00,OPEN,0
665690.753,3,0,0,0.997,1.000,1.000,-90.00,180.00,0.00,OPEN,0
665690.803,3,0,0,0.992,1.000,1.000,-90.00,180.00,0.00,OPEN,0
665690.853,3,0,0,0.987,1.000,1.000,-90.00,180.00,0.00,OPEN,0
665690.903,3,0,0,0.985,1.000,1.000,-90.00,180.00,0.00,OPEN,0
665690.954,3,0,0,0.989,1.000,1.000,-90.00,180.00,0.00,OPEN,0
665691.003,3,0,0,0.993,1.000,1.000,-90.00,180.00,0.00,OPEN,0
665691.053,3,0,0,0.996,1.000,1.000,-90.00,180.00,0.00,OPEN,0
665691.103,3,0,0,0.997,1.000,1.000,-90.00,180.00,0.00,OPEN,0
665691.154,3,0,0,0.998,1.000,1.000,-90.00,180.00,0.00,OPEN,0
665691.203,3,0,0,0.998,1.000,1.000,-90.00,180.00,0.00,OPEN,0
665691.254,3,0,0,0.999,1.000,1.000,-90.00,180.00,0.00,OPEN,0
665691.304,3,0,0,0.999,1.000,1.000,-90.00,180.00,0.00,OPEN,0
665691.356,3,0,0,0.999,1.000,1.000,-90.00,180.00,0.00,OPEN,0
665691.407,3,0,0,1.000,1.000,1.000,-90.00,180.00,0.00,OPEN,0
665691.454,3,0,0,1.000,1.000,1.000,-90.00,180.00,0.00,OPEN,0
665691.504,3,0,0,1.000,1.000,1.000,-90.00,180.00,0.00,OPEN,0
665691.554,3,0,0,1.000,1.000,1.000,-90.00,180.00,0.00,OPEN,0
665691.603,3,0,0,1.000,1.000,1.000,-90.00,180.00,0.00,OPEN,0
665691.654,3,0,0,1.000,1.000,1.000,-90.00,180.00,0.00,OPEN,0
665691.704,3,0,0,1.000,1.000,1.000,-90.00,180.00,0.00,OPEN,0
665691.754,3,0,0,1.000,1.000,1.000,-90.00,180.00,0.00,OPEN,0
665691.804,3,0,0,1.000,1.000,1.000,-90.00,180.00,0.00,OPEN,0
665691.853,3,0,0,1.000,1.000,1.000,-90.00,180.00,0.00,OPEN,0
665691.903,3,0,0,1.000,1.000,1.000,-90.00,180.00,0.00,OPEN,0
665691.953,3,0,0,1.000,1.000,1.000,-90.00,180.00,0.00,OPEN,0
665692.004,3,0,0,1.000,1.000,1.000,-90.00,180.00,0.00,OPEN,0
665692.054,3,0,0,1.000,1.000,1.000,-90.00,180.00,0.00,OPEN,0
665692.104,3,0,0,1.000,1.000,1.000,-90.00,180.00,0.00,OPEN,0
665692.153,3,0,0,1.000,1.000,1.000,-90.00,180.00,0.00,OPEN,0
665692.204,3,0,0,1.000,1.000,1.000,-90.00,180.00,0.00,OPEN,0
665692.253,3,0,0,1.000,1.000,1.000,-90.00,180.00,0.00,OPEN,0
665692.304,3,0,0,1.000,1.000,1.000,-90.00,180.00,0.00,OPEN,0
665692.355,3,0,0,1.000,1.000,1.000,-90.00,180.00,0.00,OPEN,0
665692.403,3,0,0,1.000,1.000,1.000,-90.00,180.00,0.00,OPEN,0
665692.454,3,0,0,1.000,1.000,1.000,-90.00,180.00,0.00,OPEN,0
665692.504,3,0,0,1.000,1.000,1.000,-90.00,180.00,0.00,OPEN,0
665692.553,3,0,0,1.000,1.000,1.000,-90.00,180.00,0.00,OPEN,0
665692.603,3,0,0,1.000,1.000,1.000,-90.00,180.00,0.00,OPEN,0
665692.653,3,0,0,1.000,1.000,1.000,-90.00,180.00,0.00,OPEN,0
665692.704,3,0,0,1.000,1.000,1.000,-90.00,180.00,0.00,OPEN,0
665692.754,3,0,0,1.000,1.000,1.000,-90.00,180.00,0.00,OPEN,0
665692.803,3,0,0,1.000,1.000,1.000,-90.00,180.00,0.00,OPEN,0
665692.853,3,0,0,1.000,1.000,1.000,-90.00,180.00,0.00,OPEN,0
665692.903,3,0,0,1.000,1.000,1.000,-90.00,180.00,0.00,OPEN,0
665692.953,3,0,0,1.000,1.000,1.000,-90.00,180.00,0.00,OPEN,0
665693.004,3,0,0,1.000,1.000,1.000,-90.00,180.00,0.00,OPEN,0
665693.066,3,0,0,1.000,1.000,1.000,-90.00,180.00,0.00,OPEN,0
665693.105,3,0,0,1.000,1.000,1.000,-90.00,180.00,0.00,OPEN,0
665693.153,3,0,0,1.000,1.000,1.000,-90.00,180.00,0.00,OPEN,0
665693.204,3,0,0,1.000,1.000,1.000,-90.00,180.00,0.00,OPEN,0
665693.253,3,0,0,1.000,1.000,1.000,-90.00,180.00,0.00,OPEN,0
665693.304,3,0,0,1.000,1.000,1.000,-90.00,180.00,0.00,OPEN,0
665693.353,3,0,0,1.000,1.000,1.000,-90.00,180.00,0.00,OPEN,0
665693.403,3,0,0,1.000,1.000,1.000,-90.00,180.00,0.00,OPEN,0
665693.454,3,0,0,1.000,1.000,1.000,-90.00,180.00,0.00,OPEN,0
665693.504,3,0,0,1.000,1.000,1.000,-90.00,180.00,0.00,OPEN,0
665693.553,3,0,0,1.000,1.000,1.000,-90.00,180.00,0.00,OPEN,0
665693.603,3,0,0,1.000,1.000,1.000,-90.00,180.00,0.00,OPEN,0
665693.654,3,0,0,1.000,1.000,1.000,-90.00,180.00,0.00,OPEN,0
665693.703,3,0,0,1.000,1.000,1.000,-90.00,180.00,0.00,OPEN,0
665693.753,3,0,0,1.000,1.000,1.000,-90.00,180.00,0.00,OPEN,0
665693.803,3,0,0,1.000,1.000,1.000,-90.00,180.00,0.00,OPEN,0
665693.853,3,0,0,1.000,1.000,1.000,-90.00,180.00,0.00,OPEN,0
665693.903,3,0,0,1.000,1.000,1.000,-90.00,180.00,0.00,OPEN,0
665693.954,3,0,0,1.000,1.000,1.000,-90.00,180.00,0.00,OPEN,0
665694.003,3,0,0,1.000,1.000,1.000,-90.00,180.00,0.00,OPEN,0
665694.053,3,0,0,1.000,1.000,1.000,-90.00,180.00,0.00,OPEN,0
665694.103,3,0,0,0.999,1.000,1.000,-90.00,180.00,0.00,OPEN,0
665694.154,3,0,0,0.999,1.000,1.000,-90.00,180.00,0.00,OPEN,0
665694.204,3,0,0,0.999,1.000,1.000,-90.00,180.00,0.00,OPEN,0
665694.253,3,0,0,1.000,1.000,1.000,-90.00,180.00,0.00,OPEN,0
665694.303,3,0,0,1.000,1.000,1.000,-90.00,180.00,0.00,OPEN,0
665694.354,3,0,0,1.000,1.000,1.000,-90.00,180.00,0.00,OPEN,0
665694.404,3,0,0,1.000,1.000,1.000,-90.00,180.00,0.00,OPEN,0
665694.454,3,0,0,1.000,1.000,1.000,-90.00,180.00,0.00,OPEN,0
665694.504,3,0,0,1.000,1.000,1.000,-90.00,180.00,0.00,OPEN,0
665694.553,3,0,0,1.000,1.000,1.000,-90.00,180.00,0.00,OPEN,0
665694.603,3,0,0,1.000,1.000,1.000,-90.00,180.00,0.00,OPEN,0
665694.653,3,0,0,1.000,1.000,1.000,-90.00,180.00,0.00,OPEN,0
665694.704,3,0,0,1.000,1.000,1.000,-90.00,180.00,0.00,OPEN,0
665694.764,3,0,0,1.000,1.000,1.000,-90.00,180.00,0.00,OPEN,0
665694.805,3,0,0,1.000,1.000,1.000,-90.00,180.00,0.00,OPEN,0
665694.853,3,0,0,1.000,1.000,1.000,-90.00,180.00,0.00,OPEN,0
665694.903,3,0,0,1.000,1.000,1.000,-90.00,180.00,0.00,OPEN,0
665694.954,3,0,0,1.000,1.000,1.000,-90.00,180.00,0.00,OPEN,0
665695.003,3,0,0,1.000,1.000,1.000,-90.00,180.00,0.00,OPEN,0
665695.054,3,0,0,0.984,1.000,1.000,-90.00,180.00,0.00,OPEN,0
665695.103,3,0,0,0.751,1.000,1.000,-90.00,180.00,0.00,OPEN,0
665695.153,3,0,0,0.676,1.000,1.000,-90.00,180.00,0.00,OPEN,0
665695.203,3,0,0,0.897,1.000,1.000,-90.00,180.00,0.00,OPEN,0
665695.254,3,0,0,0.933,1.000,1.000,-90.00,180.00,0.00,OPEN,0
665695.304,3,0,0,0.995,1.000,1.000,-90.00,180.00,0.00,OPEN,0
665695.353,3,0,0,1.000,1.000,1.000,-90.00,180.00,0.00,OPEN,0
665695.403,3,0,0,1.000,1.000,1.000,-90.00,180.00,0.00,OPEN,0
665695.454,3,0,0,1.000,1.000,1.000,-90.00,180.00,0.00,OPEN,0
665695.503,3,0,0,1.000,1.000,1.000,-90.00,180.00,0.00,OPEN,0
665695.553,0,0,0,1.000,1.000,1.000,-90.00,180.00,0.00,OPEN,0
665695.604,0,0,0,1.000,1.000,1.000,-90.00,180.00,0.00,OPEN,0
665695.653,0,0,0,1.000,1.000,1.000,-90.00,180.00,0.00,OPEN,0
665695.704,0,0,0,1.000,1.000,1.000,-90.00,180.00,0.00,OPEN,0
665695.754,0,0,0,1.000,1.000,1.000,-90.00,180.00,0.00,OPEN,0
665695.804,0,0,0,1.000,1.000,1.000,-90.00,180.00,0.00,OPEN,0
665695.853,0,0,0,1.000,1.000,1.000,-90.00,180.00,0.00,OPEN,0
665695.903,0,0,0,1.000,1.000,1.000,-90.00,180.00,0.00,OPEN,0
665695.954,0,0,0,1.000,1.000,1.000,-90.00,180.00,0.00,OPEN,0
665696.004,0,0,0,1.000,1.000,1.000,-90.00,180.00,0.00,OPEN,0
665696.054,0,0,0,1.000,1.000,1.000,-90.00,180.00,0.00,OPEN,0
665696.103,0,0,0,1.000,1.000,1.000,-90.00,180.00,0.00,OPEN,0
665696.154,0,0,0,1.000,1.000,1.000,-90.00,180.00,0.00,OPEN,0
665696.203,0,0,0,1.000,1.000,1.000,-90.00,180.00,0.00,OPEN,0
665696.255,0,0,0,1.000,1.000,1.000,-90.00,180.00,0.00,OPEN,0
665696.312,0,0,0,1.000,1.000,1.000,-90.00,180.00,0.00,OPEN,0
665696.355,0,0,0,1.000,1.000,1.000,-90.00,180.00,0.00,OPEN,0
665696.404,0,0,0,1.000,1.000,1.000,-90.00,180.00,0.00,OPEN,0
665696.453,0,0,0,1.000,1.000,1.000,-90.00,180.00,0.00,OPEN,0
665696.503,0,0,0,1.000,1.000,1.000,-90.00,180.00,0.00,OPEN,0
665696.554,0,0,0,1.000,1.000,1.000,-90.00,180.00,0.00,OPEN,0
665696.603,0,0,0,1.000,1.000,1.000,-90.00,180.00,0.00,OPEN,0
665696.653,0,0,0,1.000,1.000,1.000,-90.00,180.00,0.00,OPEN,0
665696.704,0,0,0,1.000,1.000,1.000,-90.00,180.00,0.00,OPEN,0
665696.754,0,0,0,1.000,1.000,1.000,-90.00,180.00,0.00,OPEN,0
665696.804,0,0,0,1.000,1.000,1.000,-90.00,180.00,0.00,OPEN,0
665696.854,0,0,0,1.000,1.000,1.000,-90.00,180.00,0.00,OPEN,0
665696.904,0,0,0,1.000,1.000,1.000,-90.00,180.00,0.00,OPEN,0
665696.953,0,0,0,1.000,1.000,1.000,-90.00,180.00,0.00,OPEN,0
665697.004,0,0,0,1.000,1.000,1.000,-90.00,180.00,0.00,OPEN,0
665697.054,0,0,0,1.000,1.000,1.000,-90.00,180.00,0.00,OPEN,0
665697.103,0,0,0,1.000,1.000,1.000,-90.00,180.00,0.00,OPEN,0
665697.153,0,0,0,1.000,1.000,1.000,-90.00,180.00,0.00,OPEN,0
665697.204,0,0,0,1.000,1.000,1.000,-90.00,180.00,0.00,OPEN,0
665697.254,0,0,0,1.000,1.000,1.000,-90.00,180.00,0.00,OPEN,0
665697.305,0,0,0,1.000,1.000,1.000,-90.00,180.00,0.00,OPEN,0
665697.353,0,0,0,1.000,1.000,1.000,-90.00,180.00,0.00,OPEN,0
665697.404,0,0,0,1.000,1.000,1.000,-90.00,180.00,0.00,OPEN,0
665697.454,0,0,0,1.000,1.000,1.000,-90.00,180.00,0.00,OPEN,0
665697.504,0,0,0,1.000,1.000,1.000,-90.00,180.00,0.00,OPEN,0
665697.553,0,0,0,1.000,1.000,1.000,-90.00,180.00,0.00,OPEN,0
665697.604,0,0,0,1.000,1.000,1.000,-90.00,180.00,0.00,OPEN,0
665697.654,0,0,0,1.000,1.000,1.000,-90.00,180.00,0.00,OPEN,0
665697.704,0,0,0,1.000,1.000,1.000,-90.00,180.00,0.00,OPEN,0
665697.754,0,0,0,1.000,1.000,1.000,-90.00,180.00,0.00,OPEN,0
665697.804,0,0,0,1.000,1.000,1.000,-90.00,180.00,0.00,OPEN,0
665697.854,0,0,0,1.000,1.000,1.000,-90.00,180.00,0.00,OPEN,0
665697.904,0,0,0,1.000,1.000,1.000,-90.00,180.00,0.00,OPEN,0
665697.953,0,0,0,1.000,1.000,1.000,-90.00,180.00,0.00,OPEN,0
665698.004,0,0,0,1.000,1.000,1.000,-90.00,180.00,0.00,OPEN,0
665698.053,0,0,0,1.000,1.000,1.000,-90.00,180.00,0.00,OPEN,0
665698.104,0,0,0,1.000,1.000,1.000,-90.00,180.00,0.00,OPEN,0
665698.154,0,0,0,1.000,1.000,1.000,-90.00,180.00,0.00,OPEN,0
665698.204,0,0,0,1.000,1.000,1.000,-90.00,180.00,0.00,OPEN,0
665698.254,0,0,0,1.000,1.000,1.000,-90.00,180.00,0.00,OPEN,0
665698.303,0,0,0,1.000,1.000,1.000,-90.00,180.00,0.00,OPEN,0
665698.354,0,0,0,1.000,1.000,1.000,-90.00,180.00,0.00,OPEN,0
665698.404,0,0,0,1.000,1.000,1.000,-90.00,180.00,0.00,OPEN,0
665698.453,0,0,0,1.000,1.000,1.000,-90.00,180.00,0.00,OPEN,0
665698.504,0,0,0,1.000,1.000,1.000,-90.00,180.00,0.00,OPEN,0
665698.554,0,0,0,1.000,1.000,1.000,-90.00,180.00,0.00,OPEN,0
665698.603,0,0,0,1.000,1.000,1.000,-90.00,180.00,0.00,OPEN,0
665698.654,0,0,0,1.000,1.000,1.000,-90.00,180.00,0.00,OPEN,0
665698.704,0,0,0,1.000,1.000,1.000,-90.00,180.00,0.00,OPEN,0
665698.753,0,0,0,1.000,1.000,1.000,-90.00,180.00,0.00,OPEN,0
665698.803,0,0,0,1.000,1.000,1.000,-90.00,180.00,0.00,OPEN,0
665698.853,0,0,0,1.000,1.000,1.000,-90.00,180.00,0.00,OPEN,0
665698.903,0,0,0,1.000,1.000,1.000,-90.00,180.00,0.00,OPEN,0
665698.953,0,0,0,1.000,1.000,1.000,-90.00,180.00,0.00,OPEN,0
665699.003,0,0,0,1.000,1.000,1.000,-90.00,180.00,0.00,OPEN,0
665699.054,0,0,0,1.000,1.000,1.000,-90.00,180.00,0.00,OPEN,0
665699.105,0,0,0,1.000,1.000,1.000,-90.00,180.00,0.00,OPEN,0
665699.158,0,0,0,1.000,1.000,1.000,-90.00,180.00,0.00,OPEN,0
665699.204,0,0,0,1.000,1.000,1.000,-90.00,180.00,0.00,OPEN,0
665699.254,0,0,0,1.000,1.000,1.000,-90.00,180.00,0.00,OPEN,0
665699.304,0,0,0,1.000,1.000,1.000,-90.00,180.00,0.00,OPEN,0
665699.354,0,0,0,1.000,1.000,1.000,-90.00,180.00,0.00,OPEN,0
665699.404,0,0,0,1.000,1.000,1.000,-90.00,180.00,0.00,OPEN,0
665699.453,0,0,0,1.000,1.000,1.000,-90.00,180.00,0.00,OPEN,0
665699.503,0,0,0,1.000,1.000,1.000,-90.00,180.00,0.00,OPEN,0
665699.554,0,0,0,1.000,1.000,1.000,-90.00,180.00,0.00,OPEN,0
665699.605,0,0,0,1.000,1.000,1.000,-90.00,180.00,0.00,OPEN,0
665699.654,0,0,0,1.000,1.000,1.000,-90.00,180.00,0.00,OPEN,0
665699.704,0,0,0,1.000,1.000,1.000,-90.00,180.00,0.00,OPEN,0
665699.753,0,0,0,1.000,1.000,1.000,-90.00,180.00,0.00,OPEN,0
665699.803,0,0,0,1.000,1.000,1.000,-90.00,180.00,0.00,OPEN,0
665699.853,0,0,0,1.000,1.000,1.000,-90.00,180.00,0.00,OPEN,0
665699.903,0,0,0,1.000,1.000,1.000,-90.00,180.00,0.00,OPEN,0
665699.953,0,0,0,1.000,1.000,1.000,-90.00,180.00,0.00,OPEN,0
665700.004,0,0,0,1.000,1.000,1.000,-90.00,180.00,0.00,OPEN,0
665700.054,0,0,0,1.000,1.000,1.000,-90.00,180.00,0.00,OPEN,0
665700.104,0,0,0,1.000,1.000,1.000,-90.00,180.00,0.00,OPEN,0
665700.153,0,0,0,1.000,1.000,1.000,-90.00,180.00,0.00,OPEN,0
665700.203,0,0,0,1.000,1.000,1.000,-90.00,180.00,0.00,OPEN,0
665700.254,0,0,0,1.000,1.000,1.000,-90.00,180.00,0.00,OPEN,0
665700.304,0,0,0,1.000,1.000,1.000,-90.00,180.00,0.00,OPEN,0
665700.354,0,0,0,1.000,1.000,1.000,-90.00,180.00,0.00,OPEN,0
665700.404,0,0,0,1.000,1.000,1.000,-90.00,180.00,0.00,OPEN,0
665700.453,0,0,0,1.000,1.000,1.000,-90.00,180.00,0.00,OPEN,0
665700.503,0,0,0,1.000,1.000,1.000,-90.00,180.00,0.00,OPEN,0
665700.553,0,0,0,1.000,1.000,1.000,-90.00,180.00,0.00,OPEN,0
665700.604,0,0,0,1.000,1.000,1.000,-90.00,180.00,0.00,OPEN,0
665700.653,0,0,0,1.000,1.000,1.000,-90.00,180.00,0.00,OPEN,0
665700.704,0,0,0,1.000,1.000,1.000,-90.00,180.00,0.00,OPEN,0
665700.753,0,0,0,1.000,1.000,1.000,-90.00,180.00,0.00,OPEN,0
665700.804,0,0,0,1.000,1.000,1.000,-90.00,180.00,0.00,OPEN,0
665700.867,0,0,0,1.000,1.000,1.000,-90.00,180.00,0.00,OPEN,0
665700.905,0,0,0,1.000,1.000,1.000,-90.00,180.00,0.00,OPEN,0
665700.955,0,0,0,1.000,1.000,1.000,-90.00,180.00,0.00,OPEN,0
665701.003,0,0,0,1.000,1.000,1.000,-90.00,180.00,0.00,OPEN,0
665701.053,0,0,0,1.000,1.000,1.000,-90.00,180.00,0.00,OPEN,0
665701.103,0,0,0,1.000,1.000,1.000,-90.00,180.00,0.00,OPEN,0
665701.154,0,0,0,1.000,1.000,1.000,-90.00,180.00,0.00,OPEN,0
665701.203,0,0,0,1.000,1.000,1.000,-90.00,180.00,0.00,OPEN,0
665701.253,0,0,0,1.000,1.000,1.000,-90.00,180.00,0.00,OPEN,0
665701.303,0,0,0,1.000,1.000,1.000,-90.00,180.00,0.00,OPEN,0
665701.354,0,0,0,1.000,1.000,1.000,-90.00,180.00,0.00,OPEN,0
665701.404,0,0,0,1.000,1.000,1.000,-90.00,180.00,0.00,OPEN,0
665701.453,0,0,0,1.000,1.000,1.000,-90.00,180.00,0.00,OPEN,0
665701.503,0,0,0,1.000,1.000,1.000,-90.00,180.00,0.00,OPEN,0
665701.554,0,0,0,1.000,1.000,1.000,-90.00,180.00,0.00,OPEN,0
665701.604,0,0,0,1.000,1.000,1.000,-90.00,180.00,0.00,OPEN,0
665701.654,0,0,0,1.000,1.000,1.000,-90.00,180.00,0.00,OPEN,0
665701.705,0,0,0,1.000,1.000,1.000,-90.00,180.00,0.00,OPEN,0
665701.754,0,0,0,1.000,1.000,1.000,-90.00,180.00,0.00,OPEN,0
665701.804,0,0,0,1.000,1.000,1.000,-90.00,180.00,0.00,OPEN,0
665701.854,0,0,0,1.000,1.000,1.000,-90.00,180.00,0.00,OPEN,0
665701.904,0,0,0,1.000,1.000,1.000,-90.00,180.00,0.00,OPEN,0
665701.953,0,0,0,1.000,1.000,1.000,-90.00,180.00,0.00,OPEN,0
665702.004,0,0,0,1.000,1.000,1.000,-90.00,180.00,0.00,OPEN,0
665702.053,0,0,0,1.000,1.000,1.000,-90.00,180.00,0.00,OPEN,0
665702.104,0,0,0,1.000,1.000,1.000,-90.00,180.00,0.00,OPEN,0
665702.154,0,0,0,1.000,1.000,1.000,-90.00,180.00,0.00,OPEN,0
665702.203,0,0,0,1.000,1.000,1.000,-90.00,180.00,0.00,OPEN,0
665702.253,0,0,0,1.000,1.000,1.000,-90.00,180.00,0.00,OPEN,0
665702.304,0,0,0,1.000,1.000,1.000,-90.00,180.00,0.00,OPEN,0
665702.354,0,0,0,1.000,1.000,1.000,-90.00,180.00,0.00,OPEN,0
665702.404,0,0,0,1.000,1.000,1.000,-90.00,180.00,0.00,OPEN,0
665702.453,0,0,0,1.000,1.000,1.000,-90.00,180.00,0.00,OPEN,0
665702.504,0,0,0,1.000,1.000,1.000,-90.00,180.00,0.00,OPEN,0
665702.554,0,0,0,1.000,1.000,1.000,-90.00,180.00,0.00,OPEN,0
665702.616,0,0,0,1.000,1.000,1.000,-90.00,180.00,0.00,OPEN,0
665702.654,0,0,0,1.000,1.000,1.000,-90.00,180.00,0.00,OPEN,0
665702.704,0,0,0,1.000,1.000,1.000,-90.00,180.00,0.00,OPEN,0
665702.753,0,0,0,1.000,1.000,1.000,-90.00,180.00,0.00,OPEN,0
665702.803,0,0,0,1.000,1.000,1.000,-90.00,180.00,0.00,OPEN,0
665702.854,0,0,0,1.000,1.000,1.000,-90.00,180.00,0.00,OPEN,0
665702.903,0,0,0,1.000,1.000,1.000,-90.00,180.00,0.00,OPEN,0
665702.954,0,0,0,1.000,1.000,1.000,-90.00,180.00,0.00,OPEN,0
665703.003,0,0,0,1.000,1.000,1.000,-90.00,180.00,0.00,OPEN,0
665703.053,0,0,0,1.000,1.000,1.000,-90.00,180.00,0.00,OPEN,0
665703.103,0,0,0,1.000,1.000,1.000,-90.00,180.00,0.00,OPEN,0
665703.154,0,0,0,1.000,1.000,1.000,-90.00,180.00,0.00,OPEN,0
665703.203,0,0,0,1.000,1.000,1.000,-90.00,180.00,0.00,OPEN,0
665703.253,0,0,0,1.000,1.000,1.000,-90.00,180.00,0.00,OPEN,0
665703.303,0,0,0,1.000,1.000,1.000,-90.00,180.00,0.00,OPEN,0
665703.354,0,0,0,1.000,1.000,1.000,-90.00,180.00,0.00,OPEN,0
665703.404,0,0,0,1.000,1.000,1.000,-90.00,180.00,0.00,OPEN,0
665703.454,0,0,0,1.000,1.000,1.000,-90.00,180.00,0.00,OPEN,0
665703.504,0,0,0,1.000,1.000,1.000,-90.00,180.00,0.00,OPEN,0
665703.554,0,0,0,1.000,1.000,1.000,-90.00,180.00,0.00,OPEN,0
665703.603,0,0,0,1.000,1.000,1.000,-90.00,180.00,0.00,OPEN,0
665703.654,0,0,0,1.000,1.000,1.000,-90.00,180.00,0.00,OPEN,0
665703.704,0,0,0,1.000,1.000,1.000,-90.00,180.00,0.00,OPEN,0
665703.754,0,0,0,1.000,1.000,1.000,-90.00,180.00,0.00,OPEN,0
665703.803,0,0,0,1.000,1.000,1.000,-90.00,180.00,0.00,OPEN,0
665703.854,0,0,0,1.000,1.000,1.000,-90.00,180.00,0.00,OPEN,0
665703.904,0,0,0,1.000,1.000,1.000,-90.00,180.00,0.00,OPEN,0
665703.953,0,0,0,1.000,1.000,1.000,-90.00,180.00,0.00,OPEN,0
665704.003,0,0,0,1.000,1.000,1.000,-90.00,180.00,0.00,OPEN,0
665704.054,0,0,0,1.000,1.000,1.000,-90.00,180.00,0.00,OPEN,0
665704.104,0,0,0,1.000,1.000,1.000,-90.00,180.00,0.00,OPEN,0
665704.153,0,0,0,1.000,1.000,1.000,-90.00,180.00,0.00,OPEN,0
665704.203,0,0,0,1.000,1.000,1.000,-90.00,180.00,0.00,OPEN,0
665704.254,0,0,0,1.000,1.000,1.000,-90.00,180.00,0.00,OPEN,0
665704.304,0,0,0,1.000,1.000,1.000,-90.00,180.00,0.00,OPEN,0
665704.354,0,0,0,1.000,1.000,1.000,-90.00,180.00,0.00,OPEN,0
665704.404,0,0,0,1.000,1.000,1.000,-90.00,180.00,0.00,OPEN,0
665704.453,0,0,0,1.000,1.000,1.000,-90.00,180.00,0.00,OPEN,0
665704.504,0,0,0,1.000,1.000,1.000,-90.00,180.00,0.00,OPEN,0
665704.553,0,0,0,1.000,1.000,1.000,-90.00,180.00,0.00,OPEN,0
665704.603,0,0,0,1.000,1.000,1.000,-90.00,180.00,0.00,OPEN,0
665704.653,0,0,0,1.000,1.000,1.000,-90.00,180.00,0.00,OPEN,0
665704.704,0,0,0,1.000,1.000,1.000,-90.00,180.00,0.00,OPEN,0
665704.755,0,0,0,1.000,1.000,1.000,-90.00,180.00,0.00,OPEN,0
665704.804,0,0,0,1.000,1.000,1.000,-90.00,180.00,0.00,OPEN,0
665704.853,0,0,0,1.000,1.000,1.000,-90.00,180.00,0.00,OPEN,0
665704.904,0,0,0,1.000,1.000,1.000,-90.00,180.00,0.00,OPEN,0
665704.953,0,0,0,1.000,1.000,1.000,-90.00,180.00,0.00,OPEN,0
665705.004,0,0,0,1.000,1.000,1.000,-90.00,180.00,0.00,OPEN,0
665705.053,0,0,0,1.000,1.000,1.000,-90.00,180.00,0.00,OPEN,0
665705.104,0,0,0,1.000,1.000,1.000,-90.00,180.00,0.00,OPEN,0
665705.157,0,0,0,1.000,1.000,1.000,-90.00,180.00,0.00,OPEN,0
665705.205,0,0,0,1.000,1.000,1.000,-90.00,180.00,0.00,OPEN,0
665705.253,0,0,0,1.000,1.000,1.000,-90.00,180.00,0.00,OPEN,0
665705.304,0,0,0,1.000,1.000,1.000,-90.00,180.00,0.00,OPEN,0
665705.353,0,0,0,1.000,1.000,1.000,-90.00,180.00,0.00,OPEN,0
665705.403,0,0,0,1.000,1.000,1.000,-90.00,180.00,0.00,OPEN,0
665705.454,0,0,0,1.000,1.000,1.000,-90.00,180.00,0.00,OPEN,0
665705.504,0,0,0,1.000,1.000,1.000,-90.00,180.00,0.00,OPEN,0
665705.554,0,0,0,1.000,1.000,1.000,-90.00,180.00,0.00,OPEN,0
665705.603,0,0,0,1.000,1.000,1.000,-90.00,180.00,0.00,OPEN,0
665705.653,0,0,0,1.000,1.000,1.000,-90.00,180.00,0.00,OPEN,0
665705.704,0,0,0,1.000,1.000,1.000,-90.00,180.00,0.00,OPEN,0
665705.754,0,0,0,1.000,1.000,1.000,-90.00,180.00,0.00,OPEN,0
665705.804,0,0,0,1.000,1.000,1.000,-90.00,180.00,0.00,OPEN,0
665705.853,0,0,0,1.000,1.000,1.000,-90.00,180.00,0.00,OPEN,0
665705.903,0,0,0,1.000,1.000,1.000,-90.00,180.00,0.00,OPEN,0
665705.954,0,0,0,1.000,1.000,1.000,-90.00,180.00,0.00,OPEN,0
665706.004,0,0,0,1.000,1.000,1.000,-90.00,180.00,0.00,OPEN,0
665706.054,0,0,0,1.000,1.000,1.000,-90.00,180.00,0.00,OPEN,0
665706.104,0,0,0,1.000,1.000,1.000,-90.00,180.00,0.00,OPEN,0
665706.153,0,0,0,1.000,1.000,1.000,-90.00,180.00,0.00,OPEN,0
665706.203,0,0,0,1.000,1.000,1.000,-90.00,180.00,0.00,OPEN,0
665706.254,0,0,0,1.000,1.000,1.000,-90.00,180.00,0.00,OPEN,0
665706.303,0,0,0,1.000,1.000,1.000,-90.00,180.00,0.00,OPEN,0
665706.353,0,0,0,1.000,1.000,1.000,-90.00,180.00,0.00,OPEN,0
665706.403,0,0,0,1.000,1.000,1.000,-90.00,180.00,0.00,OPEN,0
665706.453,0,0,0,1.000,1.000,1.000,-90.00,180.00,0.00,OPEN,0
665706.503,0,0,0,1.000,1.000,1.000,-90.00,180.00,0.00,OPEN,0
665706.553,0,0,0,1.000,1.000,1.000,-90.00,180.00,0.00,OPEN,0
665706.603,0,0,0,1.000,1.000,1.000,-90.00,180.00,0.00,OPEN,0
665706.653,0,0,0,1.000,1.000,1.000,-90.00,180.00,0.00,OPEN,0
665706.704,0,0,0,1.000,1.000,1.000,-90.00,180.00,0.00,OPEN,0
665706.754,0,0,0,1.000,1.000,1.000,-90.00,180.00,0.00,OPEN,0
665706.816,0,0,0,1.000,1.000,1.000,-90.00,180.00,0.00,OPEN,0
665706.855,0,0,0,1.000,1.000,1.000,-90.00,180.00,0.00,OPEN,0
665706.904,0,0,0,1.000,1.000,1.000,-90.00,180.00,0.00,OPEN,0
665706.954,0,0,0,1.000,1.000,1.000,-90.00,180.00,0.00,OPEN,0
665707.003,0,0,0,1.000,1.000,1.000,-90.00,180.00,0.00,OPEN,0
665707.055,0,0,0,1.000,1.000,1.000,-90.00,180.00,0.00,OPEN,0
665707.103,0,0,0,1.000,1.000,1.000,-90.00,180.00,0.00,OPEN,0
665707.160,0,0,0,1.000,1.000,1.000,-90.00,180.00,0.00,OPEN,0
665707.204,0,0,0,1.000,1.000,1.000,-90.00,180.00,0.00,OPEN,0
665707.254,0,0,0,1.000,1.000,1.000,-90.00,180.00,0.00,OPEN,0
665707.304,0,0,0,1.000,1.000,1.000,-90.00,180.00,0.00,OPEN,0
665707.354,0,0,0,1.000,1.000,1.000,-90.00,180.00,0.00,OPEN,0
665707.404,0,0,0,1.000,1.000,1.000,-90.00,180.00,0.00,OPEN,0
665707.454,0,0,0,1.000,1.000,1.000,-90.00,180.00,0.00,OPEN,0
665707.503,0,0,0,1.000,1.000,1.000,-90.00,180.00,0.00,OPEN,0
665707.554,0,0,0,1.000,1.000,1.000,-90.00,180.00,0.00,OPEN,0
665707.603,0,0,0,1.000,1.000,1.000,-90.00,180.00,0.00,OPEN,0
665707.655,0,0,0,1.000,1.000,1.000,-90.00,180.00,0.00,OPEN,0
665707.703,0,0,0,1.000,1.000,1.000,-90.00,180.00,0.00,OPEN,0
665707.753,0,0,0,1.000,1.000,1.000,-90.00,180.00,0.00,OPEN,0
665707.803,0,0,0,1.000,1.000,1.000,-90.00,180.00,0.00,OPEN,0
665707.853,0,0,0,1.000,1.000,1.000,-90.00,180.00,0.00,OPEN,0
665707.905,0,0,0,1.000,1.000,1.000,-90.00,180.00,0.00,OPEN,0
665707.955,0,0,0,1.000,1.000,1.000,-90.00,180.00,0.00,OPEN,0
665708.004,0,0,0,1.000,1.000,1.000,-90.00,180.00,0.00,OPEN,0
665708.054,0,0,0,1.000,1.000,1.000,-90.00,180.00,0.00,OPEN,0
665708.103,0,0,0,1.000,1.000,1.000,-90.00,180.00,0.00,OPEN,0
665708.154,0,0,0,1.000,1.000,1.000,-90.00,180.00,0.00,OPEN,0
665708.204,0,0,0,1.000,1.000,1.000,-90.00,180.00,0.00,OPEN,0
665708.254,0,0,0,1.000,1.000,1.000,-90.00,180.00,0.00,OPEN,0
665708.304,0,0,0,1.000,1.000,1.000,-90.00,180.00,0.00,OPEN,0
665708.354,0,0,0,1.000,1.000,1.000,-90.00,180.00,0.00,OPEN,0
665708.404,0,0,0,1.000,1.000,1.000,-90.00,180.00,0.00,OPEN,0
665708.454,0,0,0,1.000,1.000,1.000,-90.00,180.00,0.00,OPEN,0
665708.503,0,0,0,1.000,1.000,1.000,-90.00,180.00,0.00,OPEN,0
665708.554,0,0,0,1.000,1.000,1.000,-90.00,180.00,0.00,OPEN,0
665708.613,0,0,0,1.000,1.000,1.000,-90.00,180.00,0.00,OPEN,0
665708.654,0,0,0,1.000,1.000,1.000,-90.00,180.00,0.00,OPEN,0
665708.703,0,0,0,1.000,1.000,1.000,-90.00,180.00,0.00,OPEN,0
665708.755,0,0,0,1.000,1.000,1.000,-90.00,180.00,0.00,OPEN,0
665708.804,0,0,0,1.000,1.000,1.000,-90.00,180.00,0.00,OPEN,0
665708.853,0,0,0,1.000,1.000,1.000,-90.00,180.00,0.00,OPEN,0
665708.905,0,0,0,1.000,1.000,1.000,-90.00,180.00,0.00,OPEN,0
665708.953,0,0,0,0.996,1.000,1.000,-90.00,180.00,0.00,OPEN,0
665709.004,0,0,0,0.993,1.000,1.000,-90.00,180.00,0.00,OPEN,0
665709.054,0,0,0,1.000,1.000,1.000,-90.00,180.00,0.00,OPEN,0
665709.103,0,0,0,1.000,1.000,1.000,-90.00,180.00,0.00,OPEN,0
665709.153,0,0,0,1.000,1.000,1.000,-90.00,180.00,0.00,OPEN,0
665709.204,0,0,0,1.000,1.000,1.000,-90.00,180.00,0.00,OPEN,0
665709.254,0,0,0,1.000,1.000,1.000,-90.00,180.00,0.00,OPEN,0
665709.304,0,0,0,1.000,1.000,1.000,-90.00,180.00,0.00,OPEN,0
665709.354,0,0,0,0.990,1.000,1.000,-90.00,180.00,0.00,OPEN,0
665709.404,0,0,0,0.999,1.000,1.000,-90.00,180.00,0.00,OPEN,0
665709.453,0,0,0,0.991,1.000,1.000,-90.00,180.00,0.00,OPEN,0
665709.504,0,0,0,0.992,1.000,1.000,-90.00,180.00,0.00,OPEN,0
665709.554,0,0,0,0.998,1.000,1.000,-90.00,180.00,0.00,OPEN,0
665709.604,0,0,0,1.000,1.000,1.000,-90.00,180.00,0.00,OPEN,0
665709.653,0,0,0,1.000,1.000,1.000,-90.00,180.00,0.00,OPEN,0
665709.703,0,0,0,1.000,1.000,1.000,-90.00,180.00,0.00,OPEN,0
665709.753,0,0,0,1.000,1.000,1.000,-90.00,180.00,0.00,OPEN,0
665709.804,0,0,0,1.000,1.000,1.000,-90.00,180.00,0.00,OPEN,0
665709.854,0,0,0,1.000,1.000,1.000,-90.00,180.00,0.00,OPEN,0
665709.904,0,0,0,1.000,1.000,1.000,-90.00,180.00,0.00,OPEN,0
665709.953,0,0,0,1.000,1.000,1.000,-90.00,180.00,0.00,OPEN,0
665710.004,0,0,0,1.000,1.000,1.000,-90.00,180.00,0.00,OPEN,0
665710.054,0,0,0,1.000,1.000,1.000,-90.00,180.00,0.00,OPEN,0
665710.103,0,0,0,1.000,1.000,1.000,-90.00,180.00,0.00,OPEN,0
665710.154,0,0,0,1.000,1.000,1.000,-90.00,180.00,0.00,OPEN,0
665710.203,0,0,0,1.000,1.000,1.000,-90.00,180.00,0.00,OPEN,0
665710.255,0,0,0,1.000,1.000,1.000,-90.00,180.00,0.00,OPEN,0
665710.307,0,0,0,1.000,1.000,1.000,-90.00,180.00,0.00,OPEN,0
665710.354,0,0,0,1.000,1.000,1.000,-90.00,180.00,0.00,OPEN,0
665710.404,0,0,0,1.000,1.000,1.000,-90.00,180.00,0.00,OPEN,0
665710.456,0,0,0,1.000,1.000,1.000,-90.00,180.00,0.00,OPEN,0
665710.505,0,0,0,1.000,1.000,1.000,-90.00,180.00,0.00,OPEN,0
665710.554,0,0,0,1.000,1.000,1.000,-90.00,180.00,0.00,OPEN,0
665710.604,0,0,0,1.000,1.000,1.000,-90.00,180.00,0.00,OPEN,0
665710.654,0,0,0,1.000,1.000,1.000,-90.00,180.00,0.00,OPEN,0
665710.704,0,0,0,1.000,1.000,1.000,-90.00,180.00,0.00,OPEN,0
665710.753,0,0,0,1.000,1.000,1.000,-90.00,180.00,0.00,OPEN,0
665710.803,0,0,0,1.000,1.000,1.000,-90.00,180.00,0.00,OPEN,0
665710.853,0,0,0,1.000,1.000,1.000,-90.00,180.00,0.00,OPEN,0
665710.904,0,0,0,1.000,1.000,1.000,-90.00,180.00,0.00,OPEN,0
665710.954,0,0,0,1.000,1.000,1.000,-90.00,180.00,0.00,OPEN,0
665711.003,0,0,0,1.000,1.000,1.000,-90.00,180.00,0.00,OPEN,0
665711.054,0,0,0,1.000,1.000,1.000,-90.00,180.00,0.00,OPEN,0
665711.103,0,0,0,1.000,1.000,1.000,-90.00,180.00,0.00,OPEN,0
665711.154,0,0,0,1.000,1.000,1.000,-90.00,180.00,0.00,OPEN,0
665711.204,0,0,0,1.000,1.000,1.000,-90.00,180.00,0.00,OPEN,0
665711.253,0,0,0,1.000,1.000,1.000,-90.00,180.00,0.00,OPEN,0
665711.304,0,0,0,1.000,1.000,1.000,-90.00,180.00,0.00,OPEN,0
665711.355,0,0,0,1.000,1.000,1.000,-90.00,180.00,0.00,OPEN,0
665711.404,0,0,0,1.000,1.000,1.000,-90.00,180.00,0.00,OPEN,0
665711.453,0,0,0,1.000,1.000,1.000,-90.00,180.00,0.00,OPEN,0
665711.504,0,0,0,1.000,1.000,1.000,-90.00,180.00,0.00,OPEN,0
665711.554,0,0,0,1.000,1.000,1.000,-90.00,180.00,0.00,OPEN,0
665711.603,0,0,0,1.000,1.000,1.000,-90.00,180.00,0.00,OPEN,0
665711.654,0,0,0,1.000,1.000,1.000,-90.00,180.00,0.00,OPEN,0
665711.704,0,0,0,1.000,1.000,1.000,-90.00,180.00,0.00,OPEN,0
665711.753,0,0,0,1.000,1.000,1.000,-90.00,180.00,0.00,OPEN,0
665711.804,0,0,0,1.000,1.000,1.000,-90.00,180.00,0.00,OPEN,0
665711.854,0,0,0,1.000,1.000,1.000,-90.00,180.00,0.00,OPEN,0
665711.903,0,0,0,1.000,1.000,1.000,-90.00,180.00,0.00,OPEN,0
665711.953,0,0,0,1.000,1.000,1.000,-90.00,180.00,0.00,OPEN,0
665712.003,0,0,0,1.000,1.000,1.000,-90.00,180.00,0.00,OPEN,0
665712.054,0,0,0,1.000,1.000,1.000,-90.00,180.00,0.00,OPEN,0
665712.103,0,0,0,1.000,1.000,1.000,-90.00,180.00,0.00,OPEN,0
665712.154,0,0,0,1.000,1.000,1.000,-90.00,180.00,0.00,OPEN,0
665712.204,0,0,0,1.000,1.000,1.000,-90.00,180.00,0.00,OPEN,0
665712.254,0,0,0,1.000,1.000,1.000,-90.00,180.00,0.00,OPEN,0
665712.304,0,0,0,1.000,1.000,1.000,-90.00,180.00,0.00,OPEN,0
665712.354,0,0,0,1.000,1.000,1.000,-90.00,180.00,0.00,OPEN,0
665712.404,0,0,0,1.000,1.000,1.000,-90.00,180.00,0.00,OPEN,0
665712.454,0,0,0,1.000,1.000,1.000,-90.00,180.00,0.00,OPEN,0
665712.504,0,0,0,1.000,1.000,1.000,-90.00,180.00,0.00,OPEN,0
665712.553,0,0,0,1.000,1.000,1.000,-90.00,180.00,0.00,OPEN,0
665712.620,0,0,0,1.000,1.000,1.000,-90.00,180.00,0.00,OPEN,0
665712.655,0,0,0,1.000,1.000,1.000,-90.00,180.00,0.00,OPEN,0
665712.704,0,0,0,1.000,1.000,1.000,-90.00,180.00,0.00,OPEN,0
665712.754,0,0,0,1.000,1.000,1.000,-90.00,180.00,0.00,OPEN,0
665712.804,0,0,0,1.000,1.000,1.000,-90.00,180.00,0.00,OPEN,0
665712.854,0,0,0,1.000,1.000,1.000,-90.00,180.00,0.00,OPEN,0
665712.904,0,0,0,1.000,1.000,1.000,-90.00,180.00,0.00,OPEN,0
665712.954,0,0,0,1.000,1.000,1.000,-90.00,180.00,0.00,OPEN,0
665713.003,0,0,0,1.000,1.000,1.000,-90.00,180.00,0.00,OPEN,0
665713.054,0,0,0,1.000,1.000,1.000,-90.00,180.00,0.00,OPEN,0
665713.104,0,0,0,1.000,1.000,1.000,-90.00,180.00,0.00,OPEN,0
665713.154,0,0,0,1.000,1.000,1.000,-90.00,180.00,0.00,OPEN,0
665713.204,0,0,0,1.000,1.000,1.000,-90.00,180.00,0.00,OPEN,0
665713.253,0,0,0,1.000,1.000,1.000,-90.00,180.00,0.00,OPEN,0
665713.303,0,0,0,1.000,1.000,1.000,-90.00,180.00,0.00,OPEN,0
665713.354,0,0,0,1.000,1.000,1.000,-90.00,180.00,0.00,OPEN,0
665713.403,0,0,0,1.000,1.000,1.000,-90.00,180.00,0.00,OPEN,0
665713.453,0,0,0,1.000,1.000,1.000,-90.00,180.00,0.00,OPEN,0
665713.504,0,0,0,1.000,1.000,1.000,-90.00,180.00,0.00,OPEN,0
665713.553,0,0,0,1.000,1.000,1.000,-90.00,180.00,0.00,OPEN,0
665713.603,0,0,0,1.000,1.000,1.000,-90.00,180.00,0.00,OPEN,0
665713.654,0,0,0,1.000,1.000,1.000,-90.00,180.00,0.00,OPEN,0
665713.704,0,0,0,1.000,1.000,1.000,-90.00,180.00,0.00,OPEN,0
665713.754,0,0,0,1.000,1.000,1.000,-90.00,180.00,0.00,OPEN,0
665713.804,0,0,0,1.000,1.000,1.000,-90.00,180.00,0.00,OPEN,0
665713.854,0,0,0,1.000,1.000,1.000,-90.00,180.00,0.00,OPEN,0
665713.904,0,0,0,1.000,1.000,1.000,-90.00,180.00,0.00,OPEN,0
665713.954,0,0,0,1.000,1.000,1.000,-90.00,180.00,0.00,OPEN,0
665714.005,0,0,0,1.000,1.000,1.000,-90.00,180.00,0.00,OPEN,0
665714.054,0,0,0,1.000,1.000,1.000,-90.00,180.00,0.00,OPEN,0
665714.104,0,0,0,1.000,1.000,1.000,-90.00,180.00,0.00,OPEN,0
665714.154,0,0,0,1.000,1.000,1.000,-90.00,180.00,0.00,OPEN,0
665714.203,0,0,0,1.000,1.000,1.000,-90.00,180.00,0.00,OPEN,0
665714.254,0,0,0,1.000,1.000,1.000,-90.00,180.00,0.00,OPEN,0
665714.318,0,0,0,1.000,1.000,1.000,-90.00,180.00,0.00,OPEN,0
665714.354,0,0,0,1.000,1.000,1.000,-90.00,180.00,0.00,OPEN,0
665714.403,0,0,0,1.000,1.000,1.000,-90.00,180.00,0.00,OPEN,0
665714.453,0,0,0,1.000,1.000,1.000,-90.00,180.00,0.00,OPEN,0
665714.504,0,0,0,1.000,1.000,1.000,-90.00,180.00,0.00,OPEN,0
665714.554,0,0,0,1.000,1.000,1.000,-90.00,180.00,0.00,OPEN,0
665714.604,0,0,0,1.000,1.000,1.000,-90.00,180.00,0.00,OPEN,0
665714.653,0,0,0,1.000,1.000,1.000,-90.00,180.00,0.00,OPEN,0
665714.703,0,0,0,1.000,1.000,1.000,-90.00,180.00,0.00,OPEN,0
665714.754,0,0,0,1.000,1.000,1.000,-90.00,180.00,0.00,OPEN,0
665714.804,0,0,0,1.000,1.000,1.000,-90.00,180.00,0.00,OPEN,0
665714.853,0,0,0,1.000,1.000,1.000,-90.00,180.00,0.00,OPEN,0
665714.903,0,0,0,1.000,1.000,1.000,-90.00,180.00,0.00,OPEN,0
665714.953,0,0,0,1.000,1.000,1.000,-90.00,180.00,0.00,OPEN,0
665715.004,0,0,0,1.000,1.000,1.000,-90.00,180.00,0.00,OPEN,0
665715.054,0,0,0,1.000,1.000,1.000,-90.00,180.00,0.00,OPEN,0
665715.104,0,0,0,1.000,1.000,1.000,-90.00,180.00,0.00,OPEN,0
665715.154,0,0,0,1.000,1.000,1.000,-90.00,180.00,0.00,OPEN,0
665715.204,0,0,0,1.000,1.000,1.000,-90.00,180.00,0.00,OPEN,0
665715.254,0,0,0,1.000,1.000,1.000,-90.00,180.00,0.00,OPEN,0
665715.303,0,0,0,1.000,1.000,1.000,-90.00,180.00,0.00,OPEN,0
665715.353,0,0,0,1.000,1.000,1.000,-90.00,180.00,0.00,OPEN,0
665715.406,0,0,0,1.000,1.000,1.000,-90.00,180.00,0.00,OPEN,0
665715.454,0,0,0,1.000,1.000,1.000,-90.00,180.00,0.00,OPEN,0
665715.504,0,0,0,1.000,1.000,1.000,-90.00,180.00,0.00,OPEN,0
665715.554,0,0,0,1.000,1.000,1.000,-90.00,180.00,0.00,OPEN,0
665715.603,0,0,0,1.000,1.000,1.000,-90.00,180.00,0.00,OPEN,0
665715.654,0,0,0,1.000,1.000,1.000,-90.00,180.00,0.00,OPEN,0
665715.704,0,0,0,1.000,1.000,1.000,-90.00,180.00,0.00,OPEN,0
665715.754,0,0,0,1.000,1.000,1.000,-90.00,180.00,0.00,OPEN,0
665715.804,0,0,0,1.000,1.000,1.000,-90.00,180.00,0.00,OPEN,0
665715.854,0,0,0,1.000,1.000,1.000,-90.00,180.00,0.00,OPEN,0
665715.903,0,0,0,1.000,1.000,1.000,-90.00,180.00,0.00,OPEN,0
665715.953,0,0,0,1.000,1.000,1.000,-90.00,180.00,0.00,OPEN,0
665716.015,0,0,0,1.000,0.999,1.000,-90.00,180.00,0.00,OPEN,0
665716.055,0,0,0,1.000,0.998,1.000,-90.00,180.00,0.00,OPEN,0
665716.104,0,0,0,1.000,0.994,1.000,-90.00,180.00,0.00,OPEN,0
665716.153,0,0,0,1.000,0.973,1.000,-90.00,180.00,0.00,OPEN,0
665716.204,0,0,0,1.000,0.706,1.000,-90.00,180.00,0.00,OPEN,0
665716.254,0,0,0,1.000,0.835,1.000,-90.00,180.00,0.00,OPEN,0
665716.304,0,0,0,1.000,0.947,1.000,-90.00,180.00,0.00,OPEN,0
665716.353,0,0,0,1.000,0.962,1.000,-90.00,180.00,0.00,OPEN,0
665716.404,0,0,0,1.000,0.954,1.000,-90.00,180.00,0.00,OPEN,0
665716.454,0,0,0,1.000,0.886,1.000,-90.00,180.00,0.00,OPEN,0
665716.503,0,0,0,1.000,0.583,1.000,-90.00,180.00,0.00,OPEN,0
665716.554,0,0,0,1.000,0.745,1.000,-90.00,180.00,0.00,OPEN,0
665716.603,0,0,0,1.000,0.909,1.000,-90.00,180.00,0.00,OPEN,0
665716.654,0,0,0,1.000,0.961,0.999,-90.00,180.00,0.00,OPEN,0
665716.703,0,0,0,1.000,0.986,0.998,-90.00,180.00,0.00,OPEN,0
665716.754,0,0,0,1.000,0.994,0.997,-90.00,180.00,0.00,OPEN,0
665716.804,0,0,0,1.000,0.996,0.996,-90.00,180.00,0.00,OPEN,0
665716.853,0,0,0,1.000,0.997,0.995,-90.00,180.00,0.00,OPEN,0
665716.904,0,0,0,1.000,0.998,0.995,-90.00,180.00,0.00,OPEN,0
665716.953,0,0,0,1.000,0.998,0.994,-90.00,180.00,0.00,OPEN,0
665717.003,0,0,0,1.000,0.998,0.994,-90.00,180.00,0.00,OPEN,0
665717.054,0,0,0,1.000,0.999,0.992,-90.00,180.00,0.00,OPEN,0
665717.104,0,0,0,1.000,0.999,0.987,-90.00,180.00,0.00,OPEN,0
665717.153,0,0,0,1.000,0.999,0.979,-90.00,180.00,0.00,OPEN,0
665717.203,0,0,0,1.000,0.999,0.969,-90.00,180.00,0.00,OPEN,0
665717.253,0,0,0,1.000,1.000,0.968,-90.00,180.00,0.00,OPEN,0
665717.305,0,0,0,1.000,1.000,0.970,-90.00,180.00,0.00,OPEN,0
665717.354,0,0,0,1.000,1.000,0.976,-90.00,180.00,0.00,OPEN,0
665717.403,0,0,0,1.000,1.000,0.979,-90.00,180.00,0.00,OPEN,0
665717.454,0,0,0,1.000,0.999,0.980,-90.00,180.00,0.00,OPEN,0
665717.503,0,0,0,1.000,0.999,0.982,-90.00,180.00,0.00,OPEN,0
665717.554,0,0,0,1.000,0.998,0.983,-90.00,180.00,0.00,OPEN,0
665717.604,0,0,0,1.000,0.994,0.979,-90.00,180.00,0.00,OPEN,0
665717.654,0,0,0,1.000,0.980,0.973,-90.00,180.00,0.00,OPEN,0
665717.720,0,0,0,1.000,0.943,0.951,-90.00,180.00,0.00,OPEN,0
665717.755,0,0,0,1.000,0.888,0.924,-90.00,180.00,0.00,OPEN,0
665717.803,0,0,0,1.000,0.865,0.897,-90.00,180.00,0.00,OPEN,0
665717.853,0,0,0,1.000,0.869,0.887,-90.00,180.00,0.00,OPEN,0
665717.904,0,0,0,1.000,0.854,0.901,-90.00,180.00,0.00,OPEN,0
665717.954,0,0,0,1.000,0.831,0.929,-90.00,180.00,0.00,OPEN,0
665718.004,0,0,0,1.000,0.825,0.960,-90.00,180.00,0.00,OPEN,0
665718.054,0,0,0,1.000,0.859,0.977,-90.00,180.00,0.00,OPEN,0
665718.104,0,0,0,1.000,0.906,0.988,-90.00,180.00,0.00,OPEN,0
665718.154,0,0,0,1.000,0.942,0.992,-90.00,180.00,0.00,OPEN,0
665718.203,0,0,0,1.000,0.969,0.995,-90.00,180.00,0.00,OPEN,0
665718.253,0,0,0,1.000,0.981,0.997,-90.00,180.00,0.00,OPEN,0
665718.304,0,0,0,1.000,0.989,0.998,-90.00,180.00,0.00,OPEN,0
665718.354,0,0,0,1.000,0.992,0.998,-90.00,180.00,0.00,OPEN,0
665718.404,0,0,0,1.000,0.995,0.998,-90.00,180.00,0.00,OPEN,0
665718.454,0,0,0,1.000,0.996,0.998,-90.00,180.00,0.00,OPEN,0
665718.504,0,0,0,1.000,0.997,0.998,-90.00,180.00,0.00,OPEN,0
665718.554,0,0,0,1.000,0.996,0.997,-90.00,180.00,0.00,OPEN,0
665718.603,0,0,0,1.000,0.995,0.996,-90.00,180.00,0.00,OPEN,0
665718.654,0,0,0,1.000,0.989,0.994,-90.00,180.00,0.00,OPEN,0
665718.703,0,0,0,1.000,0.962,0.989,-90.00,180.00,0.00,OPEN,0
665718.753,0,0,0,1.000,0.843,0.982,-90.00,180.00,0.00,OPEN,0
665718.803,0,0,0,1.000,0.502,0.973,-90.00,180.00,0.00,OPEN,0
665718.853,0,0,0,1.000,0.804,0.970,-90.00,180.00,0.00,OPEN,0
665718.904,0,0,0,1.000,0.892,0.972,-90.00,180.00,0.00,OPEN,0
665718.954,0,0,0,1.000,0.892,0.979,-90.00,180.00,0.00,OPEN,0
665719.005,0,0,0,1.000,0.818,0.984,-90.00,180.00,0.00,OPEN,0
665719.053,0,0,0,1.000,0.657,0.989,-90.00,180.00,0.00,OPEN,0
665719.104,0,0,0,1.000,0.515,0.990,-90.00,180.00,0.00,OPEN,0
665719.154,0,0,0,1.000,0.650,0.990,-90.00,180.00,0.00,OPEN,0
665719.204,0,0,0,1.000,0.754,0.989,-90.00,180.00,0.00,OPEN,0
665719.254,0,0,0,1.000,0.770,0.988,-90.00,180.00,0.00,OPEN,0
665719.303,0,0,0,1.000,0.735,0.985,-90.00,180.00,0.00,OPEN,0
665719.354,0,0,0,1.000,0.698,0.983,-90.00,180.00,0.00,OPEN,0
665719.411,0,0,0,1.000,0.645,0.984,-90.00,180.00,0.00,OPEN,0
665719.454,0,0,0,1.000,0.608,0.985,-90.00,180.00,0.00,OPEN,0
665719.503,0,0,0,1.000,0.618,0.989,-90.00,180.00,0.00,OPEN,0
665719.553,0,0,0,1.000,0.718,0.990,-90.00,180.00,0.00,OPEN,0
665719.603,0,0,0,1.000,0.775,0.992,-90.00,180.00,0.00,OPEN,0
665719.654,0,0,0,1.000,0.844,0.990,-90.00,180.00,0.00,OPEN,0
665719.704,0,0,0,1.000,0.898,0.991,-90.00,180.00,0.00,OPEN,0
665719.754,0,0,0,1.000,0.915,0.989,-90.00,180.00,0.00,OPEN,0
665719.803,0,0,0,1.000,0.913,0.986,-90.00,180.00,0.00,OPEN,0
665719.854,0,0,0,1.000,0.908,0.983,-90.00,180.00,0.00,OPEN,0
665719.904,0,0,0,1.000,0.883,0.972,-90.00,180.00,0.00,OPEN,0
665719.954,0,0,0,1.000,0.875,0.955,-90.00,180.00,0.00,OPEN,0
665720.004,0,0,0,1.000,0.937,0.949,-90.00,180.00,0.00,OPEN,0
665720.053,0,0,0,1.000,0.978,0.950,-90.00,180.00,0.00,OPEN,0
665720.103,0,0,0,1.000,0.992,0.962,-90.00,180.00,0.00,OPEN,0
665720.154,0,0,0,1.000,0.996,0.970,-90.00,180.00,0.00,OPEN,0
665720.203,0,0,0,1.000,0.997,0.974,-90.00,180.00,0.00,OPEN,0
665720.254,0,0,0,1.000,0.998,0.978,-90.00,180.00,0.00,OPEN,0
665720.304,0,0,0,1.000,0.998,0.979,-90.00,180.00,0.00,OPEN,0
665720.353,0,0,0,1.000,0.997,0.977,-90.00,180.00,0.00,OPEN,0
665720.404,0,0,0,1.000,0.994,0.975,-90.00,180.00,0.00,OPEN,0
665720.455,0,0,0,1.000,0.987,0.974,-90.00,180.00,0.00,OPEN,0
665720.504,0,0,0,1.000,0.955,0.970,-90.00,180.00,0.00,OPEN,0
665720.553,0,0,0,1.000,0.852,0.962,-90.00,180.00,0.00,OPEN,0
665720.604,0,0,0,1.000,0.690,0.959,-90.00,180.00,0.00,OPEN,0
665720.654,0,0,0,1.000,0.531,0.957,-90.00,180.00,0.00,OPEN,0
665720.703,0,0,0,1.000,0.596,0.954,-90.00,180.00,0.00,OPEN,0
665720.754,0,0,0,1.000,0.509,0.960,-90.00,180.00,0.00,OPEN,0
665720.804,0,0,0,1.000,0.617,0.963,-90.00,180.00,0.00,OPEN,0
665720.854,0,0,0,1.000,0.725,0.964,-90.00,180.00,0.00,OPEN,0
665720.904,0,0,0,1.000,0.760,0.968,-90.00,180.00,0.00,OPEN,0
665720.953,0,0,0,1.000,0.755,0.971,-90.00,180.00,0.00,OPEN,0
665721.004,0,0,0,1.000,0.711,0.976,-90.00,180.00,0.00,OPEN,0
665721.054,0,0,0,1.000,0.637,0.980,-90.00,180.00,0.00,OPEN,0
665721.104,0,0,0,1.000,0.555,0.980,-90.00,180.00,0.00,OPEN,0
665721.153,0,0,0,1.000,0.519,0.983,-90.00,180.00,0.00,OPEN,0
665721.219,0,0,0,1.000,0.550,0.983,-90.00,180.00,0.00,OPEN,0
665721.255,0,0,0,1.000,0.720,0.981,-90.00,180.00,0.00,OPEN,0
665721.303,0,0,0,1.000,0.863,0.972,-90.00,180.00,0.00,OPEN,0
665721.353,0,0,0,1.000,0.956,0.953,-90.00,180.00,0.00,OPEN,0
665721.403,0,0,0,1.000,0.980,0.932,-90.00,180.00,0.00,OPEN,0
665721.453,0,0,0,1.000,0.987,0.903,-90.00,180.00,0.00,OPEN,0
665721.504,0,0,0,1.000,0.988,0.892,-90.00,180.00,0.00,OPEN,0
665721.554,0,0,0,1.000,0.986,0.895,-90.00,180.00,0.00,OPEN,0
665721.604,0,0,0,1.000,0.977,0.924,-90.00,180.00,0.00,OPEN,0
665721.653,0,0,0,1.000,0.950,0.968,-90.00,180.00,0.00,OPEN,0
665721.703,0,0,0,1.000,0.926,0.987,-90.00,180.00,0.00,OPEN,0
665721.754,0,0,0,1.000,0.941,0.996,-90.00,180.00,0.00,OPEN,0
665721.804,0,0,0,1.000,0.975,0.999,-90.00,180.00,0.00,OPEN,0
665721.854,0,0,0,1.000,0.987,0.999,-90.00,180.00,0.00,OPEN,0
665721.903,0,0,0,1.000,0.995,0.999,-90.00,180.00,0.00,OPEN,0
665721.954,0,0,0,1.000,0.999,0.999,-90.00,180.00,0.00,OPEN,0
665722.004,0,0,0,1.000,1.000,0.999,-90.00,180.00,0.00,OPEN,0
665722.054,0,0,0,1.000,1.000,0.999,-90.00,180.00,0.00,OPEN,0
665722.104,0,0,0,1.000,1.000,0.999,-90.00,180.00,0.00,OPEN,0
665722.154,0,0,0,1.000,1.000,1.000,-90.00,180.00,0.00,OPEN,0
665722.204,0,0,0,1.000,1.000,1.000,-90.00,180.00,0.00,OPEN,0
665722.254,0,0,0,1.000,1.000,1.000,-90.00,180.00,0.00,OPEN,0
665722.304,0,0,0,1.000,1.000,1.000,-90.00,180.00,0.00,OPEN,0
665722.354,0,0,0,1.000,0.998,1.000,-90.00,180.00,0.00,OPEN,0
665722.404,0,0,0,0.999,0.998,1.000,-90.00,180.00,0.00,OPEN,0
665722.454,0,0,0,0.999,0.998,1.000,-90.00,180.00,0.00,OPEN,0
665722.503,0,0,0,0.999,0.999,1.000,-90.00,180.00,0.00,OPEN,0
665722.553,0,0,0,1.000,1.000,1.000,-90.00,180.00,0.00,OPEN,0
665722.604,0,0,0,1.000,1.000,1.000,-90.00,180.00,0.00,OPEN,0
665722.653,0,0,0,1.000,1.000,1.000,-90.00,180.00,0.00,OPEN,0
665722.704,0,0,0,1.000,1.000,1.000,-90.00,180.00,0.00,OPEN,0
665722.754,0,0,0,1.000,1.000,1.000,-90.00,180.00,0.00,OPEN,0
665722.804,0,0,0,1.000,1.000,1.000,-90.00,180.00,0.00,OPEN,0
665722.854,0,0,0,1.000,1.000,1.000,-90.00,180.00,0.00,OPEN,0
665722.923,0,0,0,1.000,1.000,1.000,-90.00,180.00,0.00,OPEN,0
665722.955,0,0,0,1.000,1.000,1.000,-90.00,180.00,0.00,OPEN,0
665723.004,0,0,0,1.000,1.000,1.000,-90.00,180.00,0.00,OPEN,0
665723.054,0,0,0,1.000,1.000,1.000,-90.00,180.00,0.00,OPEN,0
665723.104,0,0,0,1.000,1.000,1.000,-90.00,180.00,0.00,OPEN,0
665723.154,0,0,0,1.000,1.000,1.000,-90.00,180.00,0.00,OPEN,0
665723.203,0,0,0,1.000,1.000,1.000,-90.00,180.00,0.00,OPEN,0
665723.254,0,0,0,1.000,1.000,1.000,-90.00,180.00,0.00,OPEN,0
665723.304,0,0,0,1.000,1.000,1.000,-90.00,180.00,0.00,OPEN,0
665723.354,0,0,0,1.000,1.000,1.000,-90.00,180.00,0.00,OPEN,0
665723.404,0,0,0,1.000,1.000,1.000,-90.00,180.00,0.00,OPEN,0
665723.454,0,0,0,1.000,1.000,1.000,-90.00,180.00,0.00,OPEN,0
665723.504,0,0,0,1.000,1.000,1.000,-90.00,180.00,0.00,OPEN,0
665723.553,0,0,0,1.000,1.000,1.000,-90.00,180.00,0.00,OPEN,0
665723.604,0,0,0,1.000,1.000,1.000,-90.00,180.00,0.00,OPEN,0
665723.654,0,0,0,1.000,1.000,1.000,-90.00,180.00,0.00,OPEN,0
665723.703,0,0,0,1.000,1.000,1.000,-90.00,180.00,0.00,OPEN,0
665723.754,0,0,0,1.000,1.000,1.000,-90.00,180.00,0.00,OPEN,0
665723.804,0,0,0,1.000,1.000,1.000,-90.00,180.00,0.00,OPEN,0
665723.853,0,0,0,1.000,1.000,1.000,-90.00,180.00,0.00,OPEN,0
665723.904,0,0,0,1.000,1.000,1.000,-90.00,180.00,0.00,OPEN,0
665723.954,0,0,0,1.000,1.000,1.000,-90.00,180.00,0.00,OPEN,0
665724.004,0,0,0,1.000,1.000,1.000,-90.00,180.00,0.00,OPEN,0
665724.053,0,0,0,1.000,1.000,1.000,-90.00,180.00,0.00,OPEN,0
665724.104,0,0,0,1.000,1.000,1.000,-90.00,180.00,0.00,OPEN,0
665724.156,0,0,0,1.000,1.000,1.000,-90.00,180.00,0.00,OPEN,0
665724.204,0,0,0,1.000,1.000,1.000,-90.00,180.00,0.00,OPEN,0
665724.253,0,0,0,1.000,1.000,1.000,-90.00,180.00,0.00,OPEN,0
665724.304,0,0,0,1.000,1.000,1.000,-90.00,180.00,0.00,OPEN,0
665724.353,0,0,0,1.000,1.000,1.000,-90.00,180.00,0.00,OPEN,0
665724.403,0,0,0,1.000,1.000,1.000,-90.00,180.00,0.00,OPEN,0
665724.454,0,0,0,1.000,1.000,1.000,-90.00,180.00,0.00,OPEN,0
665724.504,0,0,0,1.000,1.000,1.000,-90.00,180.00,0.00,OPEN,0
665724.553,0,0,0,1.000,1.000,1.000,-90.00,180.00,0.00,OPEN,0
665724.609,0,0,0,1.000,1.000,1.000,-90.00,180.00,0.00,OPEN,0
665724.655,0,0,0,1.000,1.000,1.000,-90.00,180.00,0.00,OPEN,0
665724.705,0,0,0,1.000,1.000,1.000,-90.00,180.00,0.00,OPEN,0
665724.755,0,0,0,1.000,1.000,1.000,-90.00,180.00,0.00,OPEN,0
665724.804,0,0,0,1.000,1.000,1.000,-90.00,180.00,0.00,OPEN,0
665724.853,0,0,0,1.000,1.000,1.000,-90.00,180.00,0.00,OPEN,0
665724.904,0,0,0,1.000,1.000,1.000,-90.00,180.00,0.00,OPEN,0
665724.954,0,0,0,1.000,1.000,1.000,-90.00,180.00,0.00,OPEN,0
665725.004,0,0,0,1.000,1.000,1.000,-90.00,180.00,0.00,OPEN,0
665725.053,0,0,0,1.000,1.000,1.000,-90.00,180.00,0.00,OPEN,0
665725.103,0,0,0,1.000,1.000,1.000,-90.00,180.00,0.00,OPEN,0
665725.154,0,0,0,1.000,1.000,1.000,-90.00,180.00,0.00,OPEN,0
665725.204,0,0,0,1.000,1.000,1.000,-90.00,180.00,0.00,OPEN,0
665725.253,0,0,0,1.000,1.000,1.000,-90.00,180.00,0.00,OPEN,0
665725.303,0,0,0,1.000,1.000,1.000,-90.00,180.00,0.00,OPEN,0
665725.353,0,0,0,1.000,1.000,1.000,-90.00,180.00,0.00,OPEN,0
665725.404,0,0,0,1.000,1.000,1.000,-90.00,180.00,0.00,OPEN,0
665725.454,0,0,0,1.000,1.000,1.000,-90.00,180.00,0.00,OPEN,0
665725.503,0,0,0,1.000,1.000,1.000,-90.00,180.00,0.00,OPEN,0
665725.554,0,0,0,1.000,1.000,1.000,-90.00,180.00,0.00,OPEN,0
665725.603,0,0,0,1.000,1.000,1.000,-90.00,180.00,0.00,OPEN,0
665725.653,0,0,0,1.000,1.000,1.000,-90.00,180.00,0.00,OPEN,0
665725.704,0,0,0,1.000,1.000,1.000,-90.00,180.00,0.00,OPEN,0
665725.754,0,0,0,1.000,1.000,1.000,-90.00,180.00,0.00,OPEN,0
665725.804,0,0,0,1.000,1.000,1.000,-90.00,180.00,0.00,OPEN,0
665725.854,0,0,0,1.000,1.000,1.000,-90.00,180.00,0.00,OPEN,0
665725.904,0,0,0,1.000,1.000,1.000,-90.00,180.00,0.00,OPEN,0
665725.954,0,0,0,1.000,1.000,1.000,-90.00,180.00,0.00,OPEN,0
665726.004,0,0,0,1.000,1.000,1.000,-90.00,180.00,0.00,OPEN,0
665726.053,0,0,0,1.000,1.000,1.000,-90.00,180.00,0.00,OPEN,0
665726.103,0,0,0,1.000,1.000,1.000,-90.00,180.00,0.00,OPEN,0
665726.154,0,0,0,1.000,1.000,1.000,-90.00,180.00,0.00,OPEN,0
665726.204,0,0,0,1.000,1.000,1.000,-90.00,180.00,0.00,OPEN,0
665726.254,0,0,0,1.000,1.000,1.000,-90.00,180.00,0.00,OPEN,0
665726.319,0,0,0,1.000,1.000,1.000,-90.00,180.00,0.00,OPEN,0
665726.355,0,0,0,1.000,1.000,1.000,-90.00,180.00,0.00,OPEN,0
665726.404,0,0,0,1.000,1.000,1.000,-90.00,180.00,0.00,OPEN,0
665726.453,0,0,0,1.000,1.000,1.000,-90.00,180.00,0.00,OPEN,0
665726.504,0,0,0,1.000,1.000,1.000,-90.00,180.00,0.00,OPEN,0
665726.553,0,0,0,1.000,1.000,1.000,-90.00,180.00,0.00,OPEN,0
665726.604,0,0,0,1.000,1.000,1.000,-90.00,180.00,0.00,OPEN,0
665726.654,0,0,0,1.000,1.000,1.000,-90.00,180.00,0.00,OPEN,0
665726.704,0,0,0,1.000,1.000,1.000,-90.00,180.00,0.00,OPEN,0
665726.754,0,0,0,1.000,1.000,1.000,-90.00,180.00,0.00,OPEN,0
665726.803,0,0,0,1.000,1.000,1.000,-90.00,180.00,0.00,OPEN,0
665726.853,0,0,0,1.000,1.000,1.000,-90.00,180.00,0.00,OPEN,0
665726.903,0,0,0,1.000,1.000,1.000,-90.00,180.00,0.00,OPEN,0
665726.953,0,0,0,1.000,1.000,1.000,-90.00,180.00,0.00,OPEN,0
665727.004,0,0,0,1.000,1.000,1.000,-90.00,180.00,0.00,OPEN,0
665727.054,0,0,0,1.000,1.000,1.000,-90.00,180.00,0.00,OPEN,0
665727.103,0,0,0,1.000,1.000,1.000,-90.00,180.00,0.00,OPEN,0
665727.153,0,0,0,1.000,1.000,1.000,-90.00,180.00,0.00,OPEN,0
665727.203,0,0,0,1.000,1.000,1.000,-90.00,180.00,0.00,OPEN,0
665727.253,0,0,0,1.000,1.000,1.000,-90.00,180.00,0.00,OPEN,0
665727.304,0,0,0,1.000,1.000,1.000,-90.00,180.00,0.00,OPEN,0
665727.353,0,0,0,1.000,1.000,1.000,-90.00,180.00,0.00,OPEN,0
665727.404,0,0,0,1.000,1.000,1.000,-90.00,180.00,0.00,OPEN,0
665727.454,0,0,0,1.000,1.000,1.000,-90.00,180.00,0.00,OPEN,0
665727.503,0,0,0,1.000,1.000,1.000,-90.00,180.00,0.00,OPEN,0
665727.554,0,0,0,1.000,1.000,1.000,-90.00,180.00,0.00,OPEN,0
665727.603,0,0,0,1.000,1.000,1.000,-90.00,180.00,0.00,OPEN,0
665727.653,0,0,0,1.000,1.000,1.000,-90.00,180.00,0.00,OPEN,0
665727.704,0,0,0,1.000,1.000,1.000,-90.00,180.00,0.00,OPEN,0
665727.754,0,0,0,1.000,1.000,1.000,-90.00,180.00,0.00,OPEN,0
665727.804,0,0,0,1.000,1.000,1.000,-90.00,180.00,0.00,OPEN,0
665727.854,0,0,0,1.000,1.000,1.000,-90.00,180.00,0.00,OPEN,0
665727.904,0,0,0,1.000,1.000,1.000,-90.00,180.00,0.00,OPEN,0
665727.954,0,0,0,1.000,1.000,1.000,-90.00,180.00,0.00,OPEN,0
665728.014,0,0,0,1.000,1.000,1.000,-90.00,180.00,0.00,OPEN,0
665728.056,0,0,0,1.000,1.000,1.000,-90.00,180.00,0.00,OPEN,0
665728.104,0,0,0,1.000,1.000,1.000,-90.00,180.00,0.00,OPEN,0
665728.153,0,0,0,1.000,1.000,1.000,-90.00,180.00,0.00,OPEN,0
665728.204,0,0,0,1.000,1.000,1.000,-90.00,180.00,0.00,OPEN,0
665728.254,0,0,0,1.000,1.000,1.000,-90.00,180.00,0.00,OPEN,0
665728.304,0,0,0,1.000,1.000,1.000,-90.00,180.00,0.00,OPEN,0
665728.353,0,0,0,1.000,1.000,1.000,-90.00,180.00,0.00,OPEN,0
665728.403,0,0,0,1.000,1.000,1.000,-90.00,180.00,0.00,OPEN,0
665728.454,0,0,0,1.000,1.000,1.000,-90.00,180.00,0.00,OPEN,0
665728.504,0,0,0,1.000,1.000,1.000,-90.00,180.00,0.00,OPEN,0
665728.554,0,0,0,1.000,1.000,1.000,-90.00,180.00,0.00,OPEN,0
665728.603,0,0,0,1.000,1.000,1.000,-90.00,180.00,0.00,OPEN,0
665728.654,0,0,0,1.000,1.000,1.000,-90.00,180.00,0.00,OPEN,0
665728.703,0,0,0,1.000,1.000,1.000,-90.00,180.00,0.00,OPEN,0
665728.754,0,0,0,1.000,1.000,1.000,-90.00,180.00,0.00,OPEN,0
665728.804,0,0,0,1.000,1.000,1.000,-90.00,180.00,0.00,OPEN,0
665728.853,0,0,0,1.000,1.000,1.000,-90.00,180.00,0.00,OPEN,0
665728.904,0,0,0,1.000,1.000,1.000,-90.00,180.00,0.00,OPEN,0
665728.954,0,0,0,1.000,1.000,1.000,-90.00,180.00,0.00,OPEN,0
665729.004,0,0,0,1.000,1.000,1.000,-90.00,180.00,0.00,OPEN,0
665729.054,0,0,0,1.000,1.000,1.000,-90.00,180.00,0.00,OPEN,0
665729.103,0,0,0,1.000,1.000,1.000,-90.00,180.00,0.00,OPEN,0
665729.154,0,0,0,1.000,1.000,1.000,-90.00,180.00,0.00,OPEN,0
665729.204,0,0,0,1.000,1.000,1.000,-90.00,180.00,0.00,OPEN,0
665729.254,0,0,0,1.000,1.000,1.000,-90.00,180.00,0.00,OPEN,0
665729.303,0,0,0,1.000,1.000,1.000,-90.00,180.00,0.00,OPEN,0
665729.354,0,0,0,1.000,1.000,1.000,-90.00,180.00,0.00,OPEN,0
665729.404,0,0,0,1.000,1.000,1.000,-90.00,180.00,0.00,OPEN,0
665729.454,0,0,0,1.000,1.000,1.000,-90.00,180.00,0.00,OPEN,0
665729.504,0,0,0,1.000,1.000,1.000,-90.00,180.00,0.00,OPEN,0
665729.553,0,0,0,0.999,1.000,1.000,-90.00,180.00,0.00,OPEN,0
665729.603,0,0,0,0.992,1.000,1.000,-90.00,180.00,0.00,OPEN,0
665729.654,0,0,0,0.991,1.000,1.000,-90.00,180.00,0.00,OPEN,0
665729.703,0,0,0,0.997,1.000,1.000,-90.00,180.00,0.00,OPEN,0
665729.766,0,0,0,0.992,1.000,1.000,-90.00,180.00,0.00,OPEN,0
665729.805,0,0,0,0.989,1.000,1.000,-90.00,180.00,0.00,OPEN,0
665729.854,0,0,0,0.995,1.000,1.000,-90.00,180.00,0.00,OPEN,0
665729.904,0,0,0,0.987,1.000,1.000,-90.00,180.00,0.00,OPEN,0
665729.954,0,0,0,0.986,1.000,1.000,-90.00,180.00,0.00,OPEN,0
665730.004,0,0,0,0.989,1.000,1.000,-90.00,180.00,0.00,OPEN,0
665730.054,0,0,0,0.998,0.999,1.000,-90.00,180.00,0.00,OPEN,0
665730.104,0,0,0,0.999,0.950,1.000,-90.00,180.00,0.00,OPEN,0
665730.154,0,0,0,0.999,0.765,1.000,-90.00,180.00,0.00,OPEN,0
665730.204,0,0,0,0.995,0.989,1.000,-90.00,180.00,0.00,OPEN,0
665730.253,0,0,0,0.985,0.999,1.000,-90.00,180.00,0.00,OPEN,0
665730.304,0,0,0,0.989,1.000,1.000,-90.00,180.00,0.00,OPEN,0
665730.353,0,0,0,0.994,1.000,1.000,-90.00,180.00,0.00,OPEN,0
665730.403,0,0,0,0.997,1.000,1.000,-90.00,180.00,0.00,OPEN,0
665730.454,0,0,0,0.999,1.000,1.000,-90.00,180.00,0.00,OPEN,0
665730.504,0,0,0,0.999,1.000,1.000,-90.00,180.00,0.00,OPEN,0
665730.554,0,0,0,0.996,1.000,1.000,-90.00,180.00,0.00,OPEN,0
665730.604,0,0,0,0.999,1.000,1.000,-90.00,180.00,0.00,OPEN,0
665730.654,0,0,0,1.000,1.000,1.000,-90.00,180.00,0.00,OPEN,0
665730.704,0,0,0,1.000,1.000,1.000,-90.00,180.00,0.00,OPEN,0
665730.754,0,0,0,1.000,1.000,0.999,-90.00,180.00,0.00,OPEN,0
665730.806,0,0,0,1.000,1.000,0.998,-90.00,180.00,0.00,OPEN,0
665730.853,0,0,0,1.000,1.000,0.996,-90.00,180.00,0.00,OPEN,0
665730.904,0,0,0,1.000,1.000,0.994,-90.00,180.00,0.00,OPEN,0
665730.954,0,0,0,1.000,1.000,0.993,-90.00,180.00,0.00,OPEN,0
665731.004,0,0,0,1.000,1.000,0.992,-90.00,180.00,0.00,OPEN,0
665731.053,0,0,0,1.000,1.000,0.990,-90.00,180.00,0.00,OPEN,0
665731.104,0,1,0,1.000,1.000,0.988,-90.00,180.00,0.00,OPEN,0
665731.153,0,1,0,1.000,1.000,0.987,-90.00,180.00,0.00,OPEN,0
665731.204,0,1,0,1.000,1.000,0.986,-90.00,180.00,0.00,OPEN,0
665731.253,0,1,0,1.000,1.000,0.986,-90.00,180.00,0.00,OPEN,0
665731.314,0,1,0,1.000,1.000,0.989,-90.00,180.00,0.00,OPEN,0
665731.354,0,1,0,1.000,1.000,0.991,-90.00,180.00,0.00,OPEN,0
665731.404,0,1,0,1.000,1.000,0.993,-90.00,180.00,0.00,OPEN,0
665731.454,0,1,0,1.000,0.999,0.994,-90.00,180.00,0.00,OPEN,0
665731.503,0,1,0,1.000,0.999,0.994,-90.00,180.00,0.00,OPEN,0
665731.554,0,1,0,1.000,0.999,0.994,-90.00,180.00,0.00,OPEN,0
665731.605,0,1,0,1.000,0.999,0.994,-90.00,180.00,0.00,OPEN,0
665731.654,0,1,0,1.000,0.999,0.993,-90.00,180.00,0.00,OPEN,0
665731.703,0,1,0,1.000,0.999,0.993,-90.00,180.00,0.00,OPEN,0
665731.754,0,1,0,1.000,0.999,0.991,-90.00,180.00,0.00,OPEN,0
665731.804,0,1,0,1.000,0.999,0.989,-90.00,180.00,0.00,OPEN,0
665731.854,0,1,0,1.000,1.000,0.989,-90.00,180.00,0.00,OPEN,0
665731.904,0,1,0,1.000,1.000,0.988,-90.00,180.00,0.00,OPEN,0
665731.954,0,1,0,1.000,1.000,0.991,-90.00,180.00,0.00,OPEN,0
665732.004,0,1,0,1.000,1.000,0.995,-90.00,180.00,0.00,OPEN,0
665732.054,0,1,0,1.000,1.000,0.997,-90.00,180.00,0.00,OPEN,0
665732.104,0,1,0,1.000,1.000,0.998,-90.00,180.00,0.00,OPEN,0
665732.153,0,1,0,1.000,1.000,0.999,-90.00,180.00,0.00,OPEN,0
665732.203,0,1,0,1.000,1.000,0.999,-90.00,180.00,0.00,OPEN,0
665732.254,0,1,0,1.000,1.000,0.999,-90.00,180.00,0.00,OPEN,0
665732.303,0,1,0,1.000,1.000,0.999,-90.00,180.00,0.00,OPEN,0
665732.354,0,1,0,1.000,1.000,0.999,-90.00,180.00,0.00,OPEN,0
665732.404,0,1,0,1.000,1.000,0.998,-90.00,180.00,0.00,OPEN,0
665732.454,0,1,0,1.000,1.000,0.997,-90.00,180.00,0.00,OPEN,0
665732.504,0,1,0,1.000,1.000,0.994,-90.00,180.00,0.00,OPEN,0
665732.554,0,1,0,1.000,0.999,0.988,-90.00,180.00,0.00,OPEN,0
665732.604,0,1,0,1.000,0.999,0.982,-90.00,180.00,0.00,OPEN,0
665732.654,0,1,0,1.000,0.998,0.985,-90.00,180.00,0.00,OPEN,0
665732.704,0,1,0,1.000,0.997,0.991,-90.00,180.00,0.00,OPEN,0
665732.753,0,1,0,1.000,0.997,0.995,-90.00,180.00,0.00,OPEN,0
665732.804,0,1,0,1.000,0.996,0.997,-90.00,180.00,0.00,OPEN,0
665732.853,0,1,0,1.000,0.995,0.998,-90.00,180.00,0.00,OPEN,0
665732.904,0,1,0,1.000,0.996,0.999,-90.00,180.00,0.00,OPEN,0
665732.954,0,1,0,1.000,0.997,0.998,-90.00,180.00,0.00,OPEN,0
665733.004,0,1,0,1.000,0.997,0.998,-90.00,180.00,0.00,OPEN,0
665733.054,0,1,0,1.000,0.998,0.997,-90.00,180.00,0.00,OPEN,0
665733.104,0,1,0,1.000,0.998,0.994,-90.00,180.00,0.00,OPEN,0
665733.154,0,1,0,1.000,0.999,0.988,-90.00,180.00,0.00,OPEN,0
665733.203,0,1,0,1.000,0.999,0.979,-90.00,180.00,0.00,OPEN,0
665733.253,0,1,0,1.000,0.999,0.976,-90.00,180.00,0.00,OPEN,0
665733.304,0,1,0,1.000,0.999,0.981,-90.00,180.00,0.00,OPEN,0
665733.354,0,1,0,1.000,0.999,0.984,-90.00,180.00,0.00,OPEN,0
665733.404,0,1,0,1.000,0.998,0.988,-90.00,180.00,0.00,OPEN,0
665733.454,0,1,0,1.000,0.998,0.993,-90.00,180.00,0.00,OPEN,0
665733.503,0,1,0,1.000,0.998,0.995,-90.00,180.00,0.00,OPEN,0
665733.553,0,1,0,1.000,0.998,0.997,-90.00,180.00,0.00,OPEN,0
665733.604,0,1,0,1.000,0.999,0.998,-90.00,180.00,0.00,OPEN,0
665733.654,0,1,0,1.000,0.999,0.998,-90.00,180.00,0.00,OPEN,0
665733.704,0,1,0,1.000,0.999,0.999,-90.00,180.00,0.00,OPEN,0
665733.768,0,1,0,1.000,0.999,0.999,-90.00,180.00,0.00,OPEN,0
665733.804,0,1,0,1.000,1.000,0.999,-90.00,180.00,0.00,OPEN,0
665733.854,0,1,0,1.000,1.000,0.998,-90.00,180.00,0.00,OPEN,0
665733.903,0,1,0,1.000,1.000,0.998,-90.00,180.00,0.00,OPEN,0
665733.953,0,1,0,1.000,1.000,0.998,-90.00,180.00,0.00,OPEN,0
665734.003,0,1,0,1.000,1.000,0.999,-90.00,180.00,0.00,OPEN,0
665734.054,0,1,0,1.000,1.000,0.999,-90.00,180.00,0.00,OPEN,0
665734.104,0,1,0,1.000,1.000,1.000,-90.00,180.00,0.00,OPEN,0
665734.154,0,1,0,1.000,1.000,1.000,-90.00,180.00,0.00,OPEN,0
665734.204,0,1,0,1.000,1.000,1.000,-90.00,180.00,0.00,OPEN,0
665734.254,0,1,0,1.000,1.000,1.000,-90.00,180.00,0.00,OPEN,0
665734.304,0,1,0,1.000,1.000,1.000,-90.00,180.00,0.00,OPEN,0
665734.354,0,1,0,1.000,1.000,1.000,-90.00,180.00,0.00,OPEN,0
665734.404,0,1,0,1.000,1.000,1.000,-90.00,180.00,0.00,OPEN,0
665734.454,0,1,0,1.000,1.000,1.000,-90.00,180.00,0.00,OPEN,0
665734.504,0,1,0,1.000,1.000,1.000,-90.00,180.00,0.00,OPEN,0
665734.554,0,1,0,1.000,1.000,1.000,-90.00,180.00,0.00,OPEN,0
665734.604,0,1,0,1.000,1.000,0.999,-90.00,180.00,0.00,OPEN,0
665734.653,0,1,0,1.000,1.000,0.999,-90.00,180.00,0.00,OPEN,0
665734.703,0,1,0,1.000,1.000,0.999,-90.00,180.00,0.00,OPEN,0
665734.754,0,1,0,1.000,1.000,0.999,-90.00,180.00,0.00,OPEN,0
665734.804,0,1,0,1.000,1.000,0.999,-90.00,180.00,0.00,OPEN,0
665734.855,0,1,0,1.000,1.000,0.999,-90.00,180.00,0.00,OPEN,0
665734.904,0,1,0,1.000,1.000,0.999,-90.00,180.00,0.00,OPEN,0
665734.954,0,1,0,1.000,1.000,0.999,-90.00,180.00,0.00,OPEN,0
665735.003,0,1,0,1.000,1.000,0.999,-90.00,180.00,0.00,OPEN,0
665735.054,0,1,0,1.000,1.000,0.999,-90.00,180.00,0.00,OPEN,0
665735.104,0,1,0,1.000,1.000,0.998,-90.00,180.00,0.00,OPEN,0
665735.154,0,1,0,1.000,1.000,0.996,-90.00,180.00,0.00,OPEN,0
665735.203,0,1,0,1.000,0.999,0.992,-90.00,180.00,0.00,OPEN,0
665735.254,0,1,0,1.000,0.998,0.985,-90.00,180.00,0.00,OPEN,0
665735.304,0,1,0,1.000,0.988,0.978,-90.00,180.00,0.00,OPEN,0
665735.355,0,1,0,1.000,0.924,0.974,-90.00,180.00,0.00,OPEN,0
665735.404,0,1,0,1.000,0.623,0.976,-90.00,180.00,0.00,OPEN,0
665735.453,0,1,0,1.000,0.959,0.989,-90.00,180.00,0.00,OPEN,0
665735.511,0,1,0,1.000,0.995,0.995,-90.00,180.00,0.00,OPEN,0
665735.554,0,1,0,1.000,0.999,0.996,-90.00,180.00,0.00,OPEN,0
665735.604,0,1,0,1.000,1.000,0.998,-90.00,180.00,0.00,OPEN,0
665735.653,0,1,0,1.000,1.000,0.998,-90.00,180.00,0.00,OPEN,0
665735.704,0,1,0,1.000,1.000,0.999,-90.00,180.00,0.00,OPEN,0
665735.754,0,1,0,1.000,1.000,0.999,-90.00,180.00,0.00,OPEN,0
665735.803,0,1,0,1.000,1.000,0.999,-90.00,180.00,0.00,OPEN,0
665735.856,0,1,0,1.000,0.999,1.000,-90.00,180.00,0.00,OPEN,0
665735.904,0,1,0,1.000,0.999,1.000,-90.00,180.00,0.00,OPEN,0
665735.953,0,1,0,1.000,0.998,1.000,-90.00,180.00,0.00,OPEN,0
665736.004,0,1,0,1.000,0.996,1.000,-90.00,180.00,0.00,OPEN,0
665736.053,0,1,0,0.999,0.994,1.000,-90.00,180.00,0.00,OPEN,0
665736.104,0,1,0,0.999,0.986,1.000,-90.00,180.00,0.00,OPEN,0
665736.154,0,1,0,0.999,0.981,1.000,-90.00,180.00,0.00,OPEN,0
665736.204,0,1,0,0.999,0.985,1.000,-90.00,180.00,0.00,OPEN,0
665736.254,0,1,0,0.999,0.996,1.000,-90.00,180.00,0.00,OPEN,0
665736.303,0,0,0,0.997,0.996,1.000,-90.00,180.00,0.00,OPEN,0
665736.355,0,0,0,0.997,1.000,1.000,-90.00,180.00,0.00,OPEN,0
665736.404,0,0,0,0.994,1.000,1.000,-90.00,180.00,0.00,OPEN,0
665736.454,0,0,0,0.998,1.000,1.000,-90.00,180.00,0.00,OPEN,0
665736.504,0,0,0,0.999,1.000,1.000,-90.00,180.00,0.00,OPEN,0
665736.554,0,0,0,1.000,1.000,1.000,-90.00,180.00,0.00,OPEN,0
665736.604,0,0,0,1.000,1.000,1.000,-90.00,180.00,0.00,OPEN,0
665736.654,0,0,0,1.000,1.000,1.000,-90.00,180.00,0.00,OPEN,0
665736.704,0,0,0,1.000,1.000,1.000,-90.00,180.00,0.00,OPEN,0
665736.754,0,0,0,0.999,1.000,1.000,-90.00,180.00,0.00,OPEN,0
665736.804,0,0,0,1.000,1.000,1.000,-90.00,180.00,0.00,OPEN,0
665736.854,0,0,0,1.000,1.000,1.000,-90.00,180.00,0.00,OPEN,0
665736.904,0,0,0,1.000,1.000,1.000,-90.00,180.00,0.00,OPEN,0
665736.954,0,0,0,1.000,1.000,1.000,-90.00,180.00,0.00,OPEN,0
665737.004,0,0,0,1.000,1.000,1.000,-90.00,180.00,0.00,OPEN,0
665737.054,0,0,0,1.000,1.000,1.000,-90.00,180.00,0.00,OPEN,0
665737.104,0,0,0,1.000,1.000,1.000,-90.00,180.00,0.00,OPEN,0
665737.154,0,0,0,1.000,1.000,1.000,-90.00,180.00,0.00,OPEN,0
665737.204,0,0,0,1.000,1.000,1.000,-90.00,180.00,0.00,OPEN,0
665737.254,0,0,0,1.000,1.000,1.000,-90.00,180.00,0.00,OPEN,0
665737.303,0,0,0,1.000,1.000,1.000,-90.00,180.00,0.00,OPEN,0
665737.353,0,0,0,1.000,1.000,1.000,-90.00,180.00,0.00,OPEN,0
665737.404,0,0,0,1.000,1.000,1.000,-90.00,180.00,0.00,OPEN,0
665737.454,0,0,0,1.000,1.000,1.000,-90.00,180.00,0.00,OPEN,0
665737.504,0,0,0,1.000,1.000,1.000,-90.00,180.00,0.00,OPEN,0
665737.574,0,0,0,1.000,1.000,1.000,-90.00,180.00,0.00,OPEN,0
665737.605,0,0,0,1.000,1.000,1.000,-90.00,180.00,0.00,OPEN,0
665737.654,0,0,0,1.000,1.000,1.000,-90.00,180.00,0.00,OPEN,0
665737.704,0,0,0,1.000,1.000,1.000,-90.00,180.00,0.00,OPEN,0
665737.754,0,0,0,1.000,1.000,1.000,-90.00,180.00,0.00,OPEN,0
665737.803,0,0,0,1.000,1.000,1.000,-90.00,180.00,0.00,OPEN,0
665737.854,0,0,0,1.000,1.000,1.000,-90.00,180.00,0.00,OPEN,0
665737.904,0,0,0,1.000,1.000,1.000,-90.00,180.00,0.00,OPEN,0
665737.954,0,0,0,1.000,1.000,1.000,-90.00,180.00,0.00,OPEN,0
665738.003,0,0,0,1.000,1.000,1.000,-90.00,180.00,0.00,OPEN,0
665738.054,0,0,0,1.000,1.000,1.000,-90.00,180.00,0.00,OPEN,0
665738.104,0,0,0,1.000,1.000,1.000,-90.00,180.00,0.00,OPEN,0
665738.154,0,0,0,1.000,1.000,1.000,-90.00,180.00,0.00,OPEN,0
665738.204,0,0,0,1.000,1.000,1.000,-90.00,180.00,0.00,OPEN,0
665738.253,0,0,0,1.000,1.000,1.000,-90.00,180.00,0.00,OPEN,0
665738.304,0,0,0,1.000,1.000,1.000,-90.00,180.00,0.00,OPEN,0
665738.354,0,0,0,1.000,1.000,1.000,-90.00,180.00,0.00,OPEN,0
665738.404,0,0,0,1.000,1.000,1.000,-90.00,180.00,0.00,OPEN,0
665738.454,0,0,0,1.000,1.000,1.000,-90.00,180.00,0.00,OPEN,0
665738.503,0,0,0,1.000,1.000,1.000,-90.00,180.00,0.00,OPEN,0
665738.554,0,0,0,1.000,1.000,1.000,-90.00,180.00,0.00,OPEN,0
665738.604,0,0,0,1.000,1.000,1.000,-90.00,180.00,0.00,OPEN,0
665738.654,0,0,0,1.000,1.000,1.000,-90.00,180.00,0.00,OPEN,0
665738.703,0,0,0,1.000,1.000,1.000,-90.00,180.00,0.00,OPEN,0
665738.754,0,0,0,1.000,1.000,1.000,-90.00,180.00,0.00,OPEN,0
665738.803,0,0,0,1.000,1.000,1.000,-90.00,180.00,0.00,OPEN,0
665738.854,0,0,0,1.000,1.000,1.000,-90.00,180.00,0.00,OPEN,0
665738.904,0,0,0,1.000,1.000,1.000,-90.00,180.00,0.00,OPEN,0
665738.953,0,0,0,1.000,1.000,1.000,-90.00,180.00,0.00,OPEN,0
665739.004,0,0,0,1.000,1.000,1.000,-90.00,180.00,0.00,OPEN,0
665739.054,0,0,0,1.000,1.000,1.000,-90.00,180.00,0.00,OPEN,0
665739.104,0,0,0,1.000,1.000,1.000,-90.00,180.00,0.00,OPEN,0
665739.154,0,0,0,1.000,1.000,1.000,-90.00,180.00,0.00,OPEN,0
665739.204,0,0,0,1.000,1.000,1.000,-90.00,180.00,0.00,OPEN,0
665739.265,0,0,0,1.000,1.000,1.000,-90.00,180.00,0.00,OPEN,0
665739.304,0,0,0,1.000,1.000,1.000,-90.00,180.00,0.00,OPEN,0
665739.354,0,0,0,1.000,1.000,1.000,-90.00,180.00,0.00,OPEN,0
665739.404,0,0,0,1.000,1.000,1.000,-90.00,180.00,0.00,OPEN,0
665739.454,0,0,0,1.000,1.000,1.000,-90.00,180.00,0.00,OPEN,0
665739.504,0,0,0,1.000,1.000,1.000,-90.00,180.00,0.00,OPEN,0
665739.554,0,0,0,1.000,1.000,1.000,-90.00,180.00,0.00,OPEN,0
665739.604,0,0,0,1.000,1.000,1.000,-90.00,180.00,0.00,OPEN,0
665739.654,0,0,0,1.000,1.000,1.000,-90.00,180.00,0.00,OPEN,0
665739.704,0,0,0,1.000,1.000,1.000,-90.00,180.00,0.00,OPEN,0
665739.753,0,0,0,1.000,1.000,1.000,-90.00,180.00,0.00,OPEN,0
665739.804,0,0,0,1.000,1.000,1.000,-90.00,180.00,0.00,OPEN,0
665739.853,0,0,0,1.000,1.000,1.000,-90.00,180.00,0.00,OPEN,0
665739.904,0,0,0,1.000,1.000,1.000,-90.00,180.00,0.00,OPEN,0
665739.954,0,0,0,1.000,1.000,1.000,-90.00,180.00,0.00,OPEN,0
665740.004,0,0,0,1.000,1.000,1.000,-90.00,180.00,0.00,OPEN,0
665740.053,0,0,0,1.000,1.000,1.000,-90.00,180.00,0.00,OPEN,0
665740.104,0,0,0,1.000,1.000,1.000,-90.00,180.00,0.00,OPEN,0
665740.153,0,0,0,1.000,1.000,1.000,-90.00,180.00,0.00,OPEN,0
665740.204,0,0,0,1.000,1.000,1.000,-90.00,180.00,0.00,OPEN,0
665740.254,0,0,0,1.000,1.000,1.000,-90.00,180.00,0.00,OPEN,0
665740.303,0,0,0,1.000,1.000,1.000,-90.00,180.00,0.00,OPEN,0
665740.354,0,0,0,1.000,1.000,1.000,-90.00,180.00,0.00,OPEN,0
665740.404,0,0,0,1.000,1.000,1.000,-90.00,180.00,0.00,OPEN,0
665740.454,0,0,0,1.000,1.000,1.000,-90.00,180.00,0.00,OPEN,0
665740.504,0,0,0,1.000,1.000,1.000,-90.00,180.00,0.00,OPEN,0
665740.554,0,0,0,1.000,1.000,1.000,-90.00,180.00,0.00,OPEN,0
665740.604,0,0,0,1.000,1.000,1.000,-90.00,180.00,0.00,OPEN,0
665740.654,0,0,0,1.000,1.000,1.000,-90.00,180.00,0.00,OPEN,0
665740.704,0,0,0,1.000,1.000,1.000,-90.00,180.00,0.00,OPEN,0
665740.754,0,0,0,1.000,1.000,1.000,-90.00,180.00,0.00,OPEN,0
665740.804,0,0,0,1.000,1.000,1.000,-90.00,180.00,0.00,OPEN,0
665740.853,0,0,0,1.000,1.000,1.000,-90.00,180.00,0.00,OPEN,0
665740.904,0,0,0,1.000,1.000,1.000,-90.00,180.00,0.00,OPEN,0
665740.965,0,0,0,1.000,1.000,1.000,-90.00,180.00,0.00,OPEN,0
665741.006,0,0,0,1.000,1.000,1.000,-90.00,180.00,0.00,OPEN,0
665741.054,0,0,0,1.000,1.000,1.000,-90.00,180.00,0.00,OPEN,0
665741.103,0,0,0,1.000,1.000,1.000,-90.00,180.00,0.00,OPEN,0
665741.154,0,0,0,1.000,1.000,1.000,-90.00,180.00,0.00,OPEN,0
665741.204,0,0,0,1.000,1.000,1.000,-90.00,180.00,0.00,OPEN,0
665741.253,0,0,0,1.000,1.000,1.000,-90.00,180.00,0.00,OPEN,0
665741.304,0,0,0,1.000,1.000,1.000,-90.00,180.00,0.00,OPEN,0
665741.354,0,0,0,1.000,1.000,1.000,-90.00,180.00,0.00,OPEN,0
665741.404,0,0,0,1.000,1.000,1.000,-90.00,180.00,0.00,OPEN,0
665741.454,0,0,0,1.000,1.000,1.000,-90.00,180.00,0.00,OPEN,0
665741.504,0,0,0,1.000,1.000,1.000,-90.00,180.00,0.00,OPEN,0
665741.553,0,0,0,1.000,1.000,1.000,-90.00,180.00,0.00,OPEN,0
665741.604,0,0,0,1.000,1.000,1.000,-90.00,180.00,0.00,OPEN,0
665741.654,0,0,0,1.000,1.000,1.000,-90.00,180.00,0.00,OPEN,0
665741.704,0,0,0,1.000,1.000,1.000,-90.00,180.00,0.00,OPEN,0
665741.754,0,0,0,1.000,1.000,1.000,-90.00,180.00,0.00,OPEN,0
665741.804,0,0,0,1.000,1.000,1.000,-90.00,180.00,0.00,OPEN,0
665741.854,0,0,0,1.000,1.000,1.000,-90.00,180.00,0.00,OPEN,0
665741.904,0,0,0,1.000,1.000,1.000,-90.00,180.00,0.00,OPEN,0
665741.954,0,0,0,1.000,1.000,1.000,-90.00,180.00,0.00,OPEN,0
665742.004,0,0,0,1.000,1.000,1.000,-90.00,180.00,0.00,OPEN,0
665742.054,0,0,0,1.000,1.000,1.000,-90.00,180.00,0.00,OPEN,0
665742.104,0,0,0,1.000,1.000,1.000,-90.00,180.00,0.00,OPEN,0
665742.154,0,0,0,1.000,1.000,1.000,-90.00,180.00,0.00,OPEN,0
665742.205,0,0,0,1.000,1.000,1.000,-90.00,180.00,0.00,OPEN,0
665742.254,0,0,0,1.000,1.000,1.000,-90.00,180.00,0.00,OPEN,0
665742.304,0,0,0,1.000,1.000,1.000,-90.00,180.00,0.00,OPEN,0
665742.354,0,0,0,1.000,1.000,1.000,-90.00,180.00,0.00,OPEN,0
665742.404,0,0,0,1.000,1.000,1.000,-90.00,180.00,0.00,OPEN,0
665742.454,0,0,0,1.000,1.000,1.000,-90.00,180.00,0.00,OPEN,0
665742.504,0,0,0,1.000,1.000,1.000,-90.00,180.00,0.00,OPEN,0
665742.553,0,0,0,1.000,1.000,1.000,-90.00,180.00,0.00,OPEN,0
665742.604,0,0,0,1.000,1.000,1.000,-90.00,180.00,0.00,OPEN,0
665742.671,0,0,0,1.000,1.000,1.000,-90.00,180.00,0.00,OPEN,0
665742.710,0,0,0,1.000,1.000,1.000,-90.00,180.00,0.00,OPEN,0
665742.754,0,0,0,0.999,1.000,1.000,-90.00,180.00,0.00,OPEN,0
665742.804,0,0,0,0.858,1.000,1.000,-90.00,180.00,0.00,OPEN,0
665742.854,0,0,0,0.484,1.000,1.000,-90.00,180.00,0.00,OPEN,0
665742.903,0,0,0,0.481,1.000,1.000,-90.00,180.00,0.00,OPEN,0
665742.954,0,0,0,0.604,1.000,1.000,-90.00,180.00,0.00,OPEN,0
665743.004,0,0,0,0.670,1.000,1.000,-90.00,180.00,0.00,OPEN,0
665743.054,0,0,0,0.776,1.000,1.000,-90.00,180.00,0.00,OPEN,0
665743.103,0,0,0,0.937,1.000,1.000,-90.00,180.00,0.00,OPEN,0
665743.154,0,0,0,0.997,1.000,1.000,-90.00,180.00,0.00,OPEN,0
665743.204,0,0,0,1.000,1.000,1.000,-90.00,180.00,0.00,OPEN,0
665743.254,0,0,0,1.000,1.000,1.000,-90.00,180.00,0.00,OPEN,0
665743.304,0,0,0,1.000,1.000,1.000,-90.00,180.00,0.00,OPEN,0
665743.353,3,0,0,1.000,1.000,1.000,-90.00,180.00,0.00,OPEN,0
665743.403,3,0,0,1.000,1.000,1.000,-90.00,180.00,0.00,OPEN,0
665743.454,3,0,0,1.000,1.000,1.000,-90.00,180.00,0.00,OPEN,0
665743.504,3,0,0,1.000,1.000,1.000,-90.00,180.00,0.00,OPEN,0
665743.554,3,0,0,1.000,1.000,1.000,-90.00,180.00,0.00,OPEN,0
665743.604,3,0,0,1.000,1.000,1.000,-90.00,180.00,0.00,OPEN,0
665743.654,3,0,0,1.000,1.000,1.000,-90.00,180.00,0.00,OPEN,0
665743.704,3,0,0,1.000,1.000,1.000,-90.00,180.00,0.00,OPEN,0
665743.754,3,0,0,1.000,1.000,1.000,-90.00,180.00,0.00,OPEN,0
665743.804,3,0,0,1.000,1.000,1.000,-90.00,180.00,0.00,OPEN,0
665743.854,3,0,0,1.000,1.000,1.000,-90.00,180.00,0.00,OPEN,0
665743.904,3,0,0,1.000,1.000,1.000,-90.00,180.00,0.00,OPEN,0
665743.954,3,0,0,1.000,1.000,1.000,-90.00,180.00,0.00,OPEN,0
665744.004,3,0,0,1.000,1.000,1.000,-90.00,180.00,0.00,OPEN,0
665744.054,3,0,0,1.000,1.000,1.000,-90.00,180.00,0.00,OPEN,0
665744.104,3,0,0,1.000,1.000,1.000,-90.00,180.00,0.00,OPEN,0
665744.153,3,0,0,1.000,1.000,1.000,-90.00,180.00,0.00,OPEN,0
665744.204,3,0,0,1.000,1.000,1.000,-90.00,180.00,0.00,OPEN,0
665744.254,3,0,0,1.000,1.000,1.000,-90.00,180.00,0.00,OPEN,0
665744.321,3,0,0,1.000,1.000,1.000,-90.00,180.00,0.00,OPEN,0
665744.355,3,0,0,1.000,1.000,1.000,-90.00,180.00,0.00,OPEN,0
665744.404,3,0,0,1.000,1.000,1.000,-90.00,180.00,0.00,OPEN,0
665744.454,3,0,0,1.000,1.000,1.000,-90.00,180.00,0.00,OPEN,0
665744.503,3,0,0,1.000,1.000,1.000,-90.00,180.00,0.00,OPEN,0
665744.554,3,0,0,1.000,1.000,1.000,-90.00,180.00,0.00,OPEN,0
665744.603,3,0,0,1.000,1.000,1.000,-90.00,180.00,0.00,OPEN,0
665744.654,3,0,0,1.000,1.000,1.000,-90.00,180.00,0.00,OPEN,0
665744.704,3,0,0,1.000,1.000,1.000,-90.00,180.00,0.00,OPEN,0
665744.753,3,0,0,1.000,1.000,1.000,-90.00,180.00,0.00,OPEN,0
665744.804,3,0,0,1.000,1.000,1.000,-90.00,180.00,0.00,OPEN,0
665744.854,3,0,0,1.000,1.000,1.000,-90.00,180.00,0.00,OPEN,0
665744.903,3,0,0,1.000,1.000,1.000,-90.00,180.00,0.00,OPEN,0
665744.953,3,0,0,1.000,1.000,1.000,-90.00,180.00,0.00,OPEN,0
665745.004,3,0,0,1.000,1.000,1.000,-90.00,180.00,0.00,OPEN,0
665745.055,3,0,0,1.000,1.000,1.000,-90.00,180.00,0.00,OPEN,0
665745.104,3,0,0,1.000,1.000,1.000,-90.00,180.00,0.00,OPEN,0
665745.154,3,0,0,1.000,1.000,1.000,-90.00,180.00,0.00,OPEN,0
665745.203,3,0,0,1.000,1.000,1.000,-90.00,180.00,0.00,OPEN,0
665745.254,3,0,0,1.000,1.000,1.000,-90.00,180.00,0.00,OPEN,0
665745.304,3,0,0,1.000,1.000,1.000,-90.00,180.00,0.00,OPEN,0
665745.354,3,0,0,1.000,1.000,1.000,-90.00,180.00,0.00,OPEN,0
665745.403,3,0,0,1.000,1.000,1.000,-90.00,180.00,0.00,OPEN,0
665745.454,3,0,0,1.000,1.000,1.000,-90.00,180.00,0.00,OPEN,0
665745.504,3,0,0,1.000,1.000,1.000,-90.00,180.00,0.00,OPEN,0
665745.554,3,0,0,1.000,1.000,1.000,-90.00,180.00,0.00,OPEN,0
665745.604,3,0,0,1.000,1.000,1.000,-90.00,180.00,0.00,OPEN,0
665745.654,3,0,0,1.000,1.000,1.000,-90.00,180.00,0.00,OPEN,0
665745.703,3,0,0,1.000,1.000,1.000,-90.00,180.00,0.00,OPEN,0
665745.754,3,0,0,1.000,1.000,1.000,-90.00,180.00,0.00,OPEN,0
665745.804,3,0,0,1.000,1.000,1.000,-90.00,180.00,0.00,OPEN,0
665745.854,3,0,0,1.000,1.000,1.000,-90.00,180.00,0.00,OPEN,0
665745.904,3,0,0,1.000,1.000,1.000,-90.00,180.00,0.00,OPEN,0
665745.954,3,0,0,1.000,1.000,1.000,-90.00,180.00,0.00,OPEN,0
665746.004,3,0,0,1.000,1.000,1.000,-90.00,180.00,0.00,OPEN,0
665746.054,3,0,0,1.000,1.000,1.000,-90.00,180.00,0.00,OPEN,0
665746.104,3,0,0,1.000,1.000,1.000,-90.00,180.00,0.00,OPEN,0
665746.167,3,0,0,1.000,1.000,1.000,-90.00,180.00,0.00,OPEN,0
665746.205,3,0,0,1.000,1.000,1.000,-90.00,180.00,0.00,OPEN,0
665746.254,3,0,0,1.000,1.000,1.000,-90.00,180.00,0.00,OPEN,0
665746.304,3,0,0,1.000,1.000,1.000,-90.00,180.00,0.00,OPEN,0
665746.354,3,0,0,1.000,1.000,1.000,-90.00,180.00,0.00,OPEN,0
665746.404,3,0,0,1.000,1.000,1.000,-90.00,180.00,0.00,OPEN,0
665746.453,3,0,0,1.000,1.000,1.000,-90.00,180.00,0.00,OPEN,0
665746.504,3,0,0,1.000,1.000,1.000,-90.00,180.00,0.00,OPEN,0
665746.554,3,0,0,1.000,1.000,1.000,-90.00,180.00,0.00,OPEN,0
665746.604,3,0,0,1.000,1.000,1.000,-90.00,180.00,0.00,OPEN,0
665746.654,3,0,0,1.000,1.000,1.000,-90.00,180.00,0.00,OPEN,0
665746.704,3,0,0,1.000,1.000,1.000,-90.00,180.00,0.00,OPEN,0
665746.753,3,0,0,1.000,1.000,1.000,-90.00,180.00,0.00,OPEN,0
665746.804,3,0,0,1.000,1.000,1.000,-90.00,180.00,0.00,OPEN,0
665746.854,3,0,0,1.000,1.000,1.000,-90.00,180.00,0.00,OPEN,0
665746.904,3,0,0,1.000,1.000,1.000,-90.00,180.00,0.00,OPEN,0
665746.954,3,0,0,1.000,1.000,1.000,-90.00,180.00,0.00,OPEN,0
665747.004,3,0,0,1.000,1.000,1.000,-90.00,180.00,0.00,OPEN,0
665747.053,3,0,0,1.000,1.000,1.000,-90.00,180.00,0.00,OPEN,0
665747.104,3,0,0,1.000,1.000,1.000,-90.00,180.00,0.00,OPEN,0
665747.154,3,0,0,1.000,1.000,1.000,-90.00,180.00,0.00,OPEN,0
665747.204,3,0,0,1.000,1.000,1.000,-90.00,180.00,0.00,OPEN,0
665747.254,3,0,0,1.000,1.000,1.000,-90.00,180.00,0.00,OPEN,0
665747.303,3,0,0,1.000,1.000,1.000,-90.00,180.00,0.00,OPEN,0
665747.354,3,0,0,1.000,1.000,1.000,-90.00,180.00,0.00,OPEN,0
665747.404,3,0,0,1.000,1.000,1.000,-90.00,180.00,0.00,OPEN,0
665747.454,3,0,0,1.000,1.000,1.000,-90.00,180.00,0.00,OPEN,0
665747.504,3,0,0,1.000,1.000,1.000,-90.00,180.00,0.00,OPEN,0
665747.553,3,0,0,1.000,1.000,1.000,-90.00,180.00,0.00,OPEN,0
665747.604,3,0,0,1.000,1.000,1.000,-90.00,180.00,0.00,OPEN,0
665747.654,3,0,0,1.000,1.000,1.000,-90.00,180.00,0.00,OPEN,0
665747.704,3,0,0,1.000,1.000,1.000,-90.00,180.00,0.00,OPEN,0
665747.754,3,0,0,1.000,1.000,1.000,-90.00,180.00,0.00,OPEN,0
665747.804,3,0,0,1.000,1.000,1.000,-90.00,180.00,0.00,OPEN,0
665747.854,3,0,0,1.000,1.000,1.000,-90.00,180.00,0.00,OPEN,0
665747.927,3,0,0,1.000,1.000,1.000,-90.00,180.00,0.00,OPEN,0
665747.955,3,0,0,1.000,1.000,1.000,-90.00,180.00,0.00,OPEN,0
665748.004,3,0,0,1.000,1.000,1.000,-90.00,180.00,0.00,OPEN,0
665748.053,3,0,0,1.000,1.000,1.000,-90.00,180.00,0.00,OPEN,0
665748.104,3,0,0,1.000,1.000,1.000,-90.00,180.00,0.00,OPEN,0
665748.154,3,0,0,1.000,1.000,1.000,-90.00,180.00,0.00,OPEN,0
665748.205,3,0,0,1.000,1.000,1.000,-90.00,180.00,0.00,OPEN,0
665748.254,3,0,0,1.000,1.000,1.000,-90.00,180.00,0.00,OPEN,0
665748.304,3,0,0,1.000,1.000,1.000,-90.00,180.00,0.00,OPEN,0
665748.354,3,0,0,1.000,1.000,1.000,-90.00,180.00,0.00,OPEN,0
665748.403,3,0,0,1.000,1.000,1.000,-90.00,180.00,0.00,OPEN,0
665748.454,3,0,0,1.000,1.000,1.000,-90.00,180.00,0.00,OPEN,0
665748.504,3,0,0,1.000,1.000,1.000,-90.00,180.00,0.00,OPEN,0
665748.554,3,0,0,1.000,1.000,1.000,-90.00,180.00,0.00,OPEN,0
665748.603,3,0,0,1.000,1.000,1.000,-90.00,180.00,0.00,OPEN,0
665748.653,3,0,0,1.000,1.000,1.000,-90.00,180.00,0.00,OPEN,0
665748.705,3,0,0,0.999,1.000,1.000,-90.00,180.00,0.00,OPEN,0
665748.754,3,0,0,0.975,1.000,1.000,-90.00,180.00,0.00,OPEN,0
665748.804,3,0,0,0.869,1.000,1.000,-90.00,180.00,0.00,OPEN,0
665748.854,3,0,0,0.666,1.000,1.000,-90.00,180.00,0.00,OPEN,0
665748.903,3,0,0,0.511,1.000,1.000,-90.00,180.00,0.00,OPEN,0
665748.954,3,0,0,0.589,1.000,1.000,-90.00,180.00,0.00,OPEN,0
665749.004,3,0,0,0.639,1.000,1.000,-90.00,180.00,0.00,OPEN,0
665749.054,3,0,0,0.562,1.000,1.000,-90.00,180.00,0.00,OPEN,0
665749.104,3,0,0,0.920,1.000,1.000,-90.00,180.00,0.00,OPEN,0
665749.153,3,0,0,1.000,1.000,1.000,-90.00,180.00,0.00,OPEN,0
665749.204,3,0,0,1.000,1.000,1.000,-90.00,180.00,0.00,OPEN,0
665749.254,3,0,0,1.000,1.000,1.000,-90.00,180.00,0.00,OPEN,0
665749.304,3,0,0,1.000,1.000,1.000,-90.00,180.00,0.00,OPEN,0
665749.354,3,0,0,1.000,1.000,1.000,-90.00,180.00,0.00,OPEN,0
665749.403,3,0,0,1.000,1.000,1.000,-90.00,180.00,0.00,OPEN,0
665749.454,0,0,0,1.000,1.000,1.000,-90.00,180.00,0.00,OPEN,0
665749.504,0,0,0,1.000,1.000,1.000,-90.00,180.00,0.00,OPEN,0
665749.565,0,0,0,1.000,1.000,1.000,-90.00,180.00,0.00,OPEN,0
665749.605,0,0,0,1.000,1.000,1.000,-90.00,180.00,0.00,OPEN,0
665749.653,0,0,0,1.000,1.000,1.000,-90.00,180.00,0.00,OPEN,0
665749.703,0,0,0,1.000,1.000,1.000,-90.00,180.00,0.00,OPEN,0
665749.754,0,0,0,1.000,1.000,1.000,-90.00,180.00,0.00,OPEN,0
665749.804,0,0,0,1.000,1.000,1.000,-90.00,180.00,0.00,OPEN,0
665749.854,0,0,0,1.000,1.000,1.000,-90.00,180.00,0.00,OPEN,0
665749.903,0,0,0,1.000,1.000,1.000,-90.00,180.00,0.00,OPEN,0
665749.954,0,0,0,1.000,1.000,1.000,-90.00,180.00,0.00,OPEN,0
665750.003,0,0,0,1.000,1.000,1.000,-90.00,180.00,0.00,OPEN,0
665750.054,0,0,0,1.000,1.000,1.000,-90.00,180.00,0.00,OPEN,0
665750.104,0,0,0,1.000,1.000,1.000,-90.00,180.00,0.00,OPEN,0
665750.154,0,0,0,1.000,1.000,1.000,-90.00,180.00,0.00,OPEN,0
665750.204,0,0,0,1.000,1.000,1.000,-90.00,180.00,0.00,OPEN,0
665750.254,0,0,0,1.000,1.000,1.000,-90.00,180.00,0.00,OPEN,0
665750.304,0,0,0,1.000,1.000,1.000,-90.00,180.00,0.00,OPEN,0
665750.355,0,0,0,1.000,1.000,1.000,-90.00,180.00,0.00,OPEN,0
665750.404,0,0,0,1.000,1.000,1.000,-90.00,180.00,0.00,OPEN,0
665750.455,0,0,0,0.999,1.000,1.000,-90.00,180.00,0.00,OPEN,0
665750.504,0,0,0,1.000,1.000,1.000,-90.00,180.00,0.00,OPEN,0
665750.554,0,0,0,1.000,1.000,1.000,-90.00,180.00,0.00,OPEN,0
665750.604,0,0,0,1.000,1.000,1.000,-90.00,180.00,0.00,OPEN,0
665750.654,0,0,0,1.000,1.000,1.000,-90.00,180.00,0.00,OPEN,0
665750.704,0,0,0,1.000,1.000,1.000,-90.00,180.00,0.00,OPEN,0
665750.754,0,0,0,1.000,1.000,1.000,-90.00,180.00,0.00,OPEN,0
665750.804,0,0,0,1.000,1.000,1.000,-90.00,180.00,0.00,OPEN,0
665750.854,0,0,0,1.000,1.000,1.000,-90.00,180.00,0.00,OPEN,0
665750.904,0,0,0,1.000,1.000,1.000,-90.00,180.00,0.00,OPEN,0
665750.955,0,0,0,1.000,1.000,1.000,-90.00,180.00,0.00,OPEN,0
665751.005,0,0,0,1.000,1.000,1.000,-90.00,180.00,0.00,OPEN,0
665751.054,0,0,0,1.000,1.000,1.000,-90.00,180.00,0.00,OPEN,0
665751.104,0,0,0,1.000,1.000,1.000,-90.00,180.00,0.00,OPEN,0
665751.154,0,0,0,1.000,1.000,1.000,-90.00,180.00,0.00,OPEN,0
665751.204,0,0,0,1.000,1.000,1.000,-90.00,180.00,0.00,OPEN,0
665751.253,0,0,0,1.000,1.000,1.000,-90.00,180.00,0.00,OPEN,0
665751.304,0,0,0,1.000,1.000,1.000,-90.00,180.00,0.00,OPEN,0
665751.354,0,0,0,1.000,1.000,1.000,-90.00,180.00,0.00,OPEN,0
665751.404,0,0,0,1.000,1.000,1.000,-90.00,180.00,0.00,OPEN,0
665751.454,0,0,0,1.000,1.000,1.000,-90.00,180.00,0.00,OPEN,0
665751.504,0,0,0,1.000,1.000,1.000,-90.00,180.00,0.00,OPEN,0
665751.554,0,0,0,1.000,1.000,1.000,-90.00,180.00,0.00,OPEN,0
665751.604,0,0,0,1.000,1.000,1.000,-90.00,180.00,0.00,OPEN,0
665751.654,0,0,0,1.000,1.000,1.000,-90.00,180.00,0.00,OPEN,0
665751.704,0,0,0,1.000,1.000,1.000,-90.00,180.00,0.00,OPEN,0
665751.754,0,0,0,1.000,1.000,1.000,-90.00,180.00,0.00,OPEN,0
665751.804,0,0,0,1.000,1.000,1.000,-90.00,180.00,0.00,OPEN,0
665751.853,0,0,0,1.000,1.000,1.000,-90.00,180.00,0.00,OPEN,0
665751.915,0,0,0,1.000,1.000,1.000,-90.00,180.00,0.00,OPEN,0
665751.955,0,0,0,1.000,1.000,1.000,-90.00,180.00,0.00,OPEN,0
665752.003,0,0,0,1.000,1.000,1.000,-90.00,180.00,0.00,OPEN,0
665752.054,0,0,0,1.000,1.000,1.000,-90.00,180.00,0.00,OPEN,0
665752.103,0,0,0,1.000,1.000,1.000,-90.00,180.00,0.00,OPEN,0
665752.154,0,0,0,1.000,1.000,1.000,-90.00,180.00,0.00,OPEN,0
665752.204,0,0,0,1.000,1.000,1.000,-90.00,180.00,0.00,OPEN,0
665752.254,0,0,0,1.000,1.000,1.000,-90.00,180.00,0.00,OPEN,0
665752.304,0,0,0,1.000,1.000,1.000,-90.00,180.00,0.00,OPEN,0
665752.354,0,0,0,1.000,1.000,1.000,-90.00,180.00,0.00,OPEN,0
665752.404,0,0,0,1.000,1.000,1.000,-90.00,180.00,0.00,OPEN,0
665752.454,0,0,0,1.000,1.000,1.000,-90.00,180.00,0.00,OPEN,0
665752.504,0,0,0,1.000,1.000,1.000,-90.00,180.00,0.00,OPEN,0
665752.554,0,0,0,1.000,1.000,1.000,-90.00,180.00,0.00,OPEN,0
665752.604,0,0,0,1.000,1.000,1.000,-90.00,180.00,0.00,OPEN,0
665752.654,0,0,0,1.000,1.000,1.000,-90.00,180.00,0.00,OPEN,0
665752.707,0,0,0,1.000,1.000,1.000,-90.00,180.00,0.00,OPEN,0
665752.755,0,0,0,1.000,1.000,1.000,-90.00,180.00,0.00,OPEN,0
665752.804,0,0,0,1.000,1.000,1.000,-90.00,180.00,0.00,OPEN,0
665752.854,0,0,0,1.000,1.000,1.000,-90.00,180.00,0.00,OPEN,0
665752.904,0,0,0,1.000,1.000,1.000,-90.00,180.00,0.00,OPEN,0
665752.954,0,0,0,1.000,1.000,1.000,-90.00,180.00,0.00,OPEN,0
665753.004,0,0,0,1.000,1.000,1.000,-90.00,180.00,0.00,OPEN,0
665753.054,0,0,0,1.000,1.000,1.000,-90.00,180.00,0.00,OPEN,0
665753.104,0,0,0,1.000,1.000,1.000,-90.00,180.00,0.00,OPEN,0
665753.157,0,0,0,1.000,1.000,1.000,-90.00,180.00,0.00,OPEN,0
665753.204,0,0,0,1.000,1.000,1.000,-90.00,180.00,0.00,OPEN,0
665753.254,0,0,0,1.000,1.000,1.000,-90.00,180.00,0.00,OPEN,0
665753.304,0,0,0,1.000,1.000,1.000,-90.00,180.00,0.00,OPEN,0
665753.354,0,0,0,1.000,1.000,1.000,-90.00,180.00,0.00,OPEN,0
665753.405,0,0,0,1.000,1.000,1.000,-90.00,180.00,0.00,OPEN,0
665753.454,0,0,0,1.000,1.000,1.000,-90.00,180.00,0.00,OPEN,0
665753.504,0,0,0,1.000,1.000,1.000,-90.00,180.00,0.00,OPEN,0
665753.554,0,0,0,1.000,1.000,1.000,-90.00,180.00,0.00,OPEN,0
665753.607,0,0,0,1.000,1.000,1.000,-90.00,180.00,0.00,OPEN,0
665753.654,0,0,0,1.000,1.000,1.000,-90.00,180.00,0.00,OPEN,0
665753.704,0,0,0,1.000,1.000,1.000,-90.00,180.00,0.00,OPEN,0
665753.754,0,0,0,1.000,1.000,1.000,-90.00,180.00,0.00,OPEN,0
665753.804,0,0,0,1.000,1.000,1.000,-90.00,180.00,0.00,OPEN,0
665753.854,0,0,0,1.000,1.000,1.000,-90.00,180.00,0.00,OPEN,0
665753.904,0,0,0,1.000,1.000,1.000,-90.00,180.00,0.00,OPEN,0
665753.954,0,0,0,1.000,1.000,1.000,-90.00,180.00,0.00,OPEN,0
665754.004,0,0,0,1.000,1.000,1.000,-90.00,180.00,0.00,OPEN,0
665754.054,0,0,0,1.000,1.000,1.000,-90.00,180.00,0.00,OPEN,0
665754.104,0,0,0,1.000,1.000,1.000,-90.00,180.00,0.00,OPEN,0
665754.154,0,0,0,1.000,1.000,1.000,-90.00,180.00,0.00,OPEN,0
665754.209,0,0,0,1.000,1.000,1.000,-90.00,180.00,0.00,OPEN,0
665754.257,0,0,0,1.000,1.000,1.000,-90.00,180.00,0.00,OPEN,0
665754.304,0,0,0,1.000,1.000,1.000,-90.00,180.00,0.00,OPEN,0
665754.354,0,0,0,1.000,1.000,1.000,-90.00,180.00,0.00,OPEN,0
665754.404,0,0,0,1.000,1.000,1.000,-90.00,180.00,0.00,OPEN,0
665754.453,0,0,0,1.000,1.000,1.000,-90.00,180.00,0.00,OPEN,0
665754.504,0,0,0,1.000,1.000,1.000,-90.00,180.00,0.00,OPEN,0
665754.554,0,0,0,1.000,1.000,1.000,-90.00,180.00,0.00,OPEN,0
665754.604,0,0,0,1.000,1.000,1.000,-90.00,180.00,0.00,OPEN,0
665754.654,0,0,0,1.000,1.000,1.000,-90.00,180.00,0.00,OPEN,0
665754.704,0,0,0,1.000,1.000,1.000,-90.00,180.00,0.00,OPEN,0
665754.754,0,0,0,1.000,1.000,1.000,-90.00,180.00,0.00,OPEN,0
665754.805,0,0,0,1.000,1.000,1.000,-90.00,180.00,0.00,OPEN,0
665754.854,0,0,0,1.000,1.000,1.000,-90.00,180.00,0.00,OPEN,0
665754.904,0,0,0,1.000,1.000,1.000,-90.00,180.00,0.00,OPEN,0
665754.954,0,0,0,1.000,1.000,1.000,-90.00,180.00,0.00,OPEN,0
665755.004,0,0,0,1.000,1.000,1.000,-90.00,180.00,0.00,OPEN,0
665755.054,0,0,0,1.000,1.000,1.000,-90.00,180.00,0.00,OPEN,0
665755.104,0,0,0,1.000,1.000,1.000,-90.00,180.00,0.00,OPEN,0
665755.154,0,0,0,1.000,1.000,1.000,-90.00,180.00,0.00,OPEN,0
665755.204,0,0,0,1.000,1.000,1.000,-90.00,180.00,0.00,OPEN,0
665755.254,0,0,0,1.000,1.000,1.000,-90.00,180.00,0.00,OPEN,0
665755.305,0,0,0,1.000,1.000,1.000,-90.00,180.00,0.00,OPEN,0
665755.354,0,0,0,1.000,1.000,1.000,-90.00,180.00,0.00,OPEN,0
665755.404,0,0,0,1.000,1.000,1.000,-90.00,180.00,0.00,OPEN,0
665755.454,0,0,0,1.000,1.000,1.000,-90.00,180.00,0.00,OPEN,0
665755.504,0,0,0,1.000,1.000,1.000,-90.00,180.00,0.00,OPEN,0
665755.555,0,0,0,1.000,1.000,1.000,-90.00,180.00,0.00,OPEN,0
665755.604,0,0,0,1.000,1.000,1.000,-90.00,180.00,0.00,OPEN,0
665755.654,0,0,0,1.000,1.000,1.000,-90.00,180.00,0.00,OPEN,0
665755.704,0,0,0,1.000,1.000,1.000,-90.00,180.00,0.00,OPEN,0
665755.754,0,0,0,1.000,1.000,1.000,-90.00,180.00,0.00,OPEN,0
665755.804,0,0,0,1.000,1.000,1.000,-90.00,180.00,0.00,OPEN,0
665755.854,0,0,0,1.000,1.000,1.000,-90.00,180.00,0.00,OPEN,0
665755.904,0,0,0,1.000,1.000,1.000,-90.00,180.00,0.00,OPEN,0
665755.954,0,0,0,1.000,1.000,1.000,-90.00,180.00,0.00,OPEN,0
665756.015,0,0,0,1.000,1.000,1.000,-90.00,180.00,0.00,OPEN,0
665756.056,0,0,0,1.000,1.000,1.000,-90.00,180.00,0.00,OPEN,0
665756.104,0,0,0,1.000,1.000,1.000,-90.00,180.00,0.00,OPEN,0
665756.154,0,0,0,1.000,1.000,1.000,-90.00,180.00,0.00,OPEN,0
665756.204,0,0,0,1.000,1.000,1.000,-90.00,180.00,0.00,OPEN,0
665756.254,0,0,0,0.982,1.000,1.000,-90.00,180.00,0.00,OPEN,0
665756.304,0,0,0,0.952,1.000,1.000,-90.00,180.00,0.00,OPEN,0
665756.354,0,0,0,0.999,1.000,1.000,-90.00,180.00,0.00,OPEN,0
665756.404,0,0,0,1.000,1.000,1.000,-90.00,180.00,0.00,OPEN,0
665756.454,0,0,0,1.000,1.000,1.000,-90.00,180.00,0.00,OPEN,0
665756.504,0,0,0,1.000,1.000,1.000,-90.00,180.00,0.00,OPEN,0
665756.554,0,0,0,0.999,1.000,1.000,-90.00,180.00,0.00,OPEN,0
665756.605,0,0,0,0.996,1.000,1.000,-90.00,180.00,0.00,OPEN,0
665756.654,0,0,0,0.806,1.000,1.000,-90.00,180.00,0.00,OPEN,0
665756.704,1,0,0,0.951,1.000,1.000,-90.00,180.00,0.00,OPEN,0
665756.754,1,0,0,0.993,0.999,1.000,-90.00,180.00,0.00,OPEN,0
665756.804,1,0,0,0.998,0.990,1.000,-90.00,180.00,0.00,OPEN,0
665756.853,1,0,0,0.999,0.931,1.000,-90.00,180.00,0.00,OPEN,0
665756.905,1,0,0,1.000,0.866,1.000,-90.00,180.00,0.00,OPEN,0
665756.954,1,0,0,1.000,0.816,1.000,-90.00,180.00,0.00,OPEN,0
665757.003,1,0,0,1.000,0.773,1.000,-90.00,180.00,0.00,OPEN,0
665757.053,1,0,0,1.000,0.744,1.000,-90.00,180.00,0.00,OPEN,0
665757.104,1,0,0,1.000,0.728,1.000,-90.00,180.00,0.00,OPEN,0
665757.154,1,0,0,1.000,0.690,1.000,-90.00,180.00,0.00,OPEN,0
665757.204,1,0,0,1.000,0.648,1.000,-90.00,180.00,0.00,OPEN,0
665757.254,1,0,0,1.000,0.651,1.000,-90.00,180.00,0.00,OPEN,0
665757.304,1,0,0,1.000,0.551,1.000,-90.00,180.00,0.00,OPEN,0
665757.363,3,0,0,1.000,0.662,1.000,-90.00,180.00,0.00,OPEN,0
665757.405,3,0,0,1.000,0.952,1.000,-90.00,180.00,0.00,OPEN,0
665757.453,3,0,0,1.000,0.996,1.000,-90.00,180.00,0.00,OPEN,0
665757.504,3,0,0,1.000,0.999,0.999,-90.00,180.00,0.00,OPEN,0
665757.554,3,0,0,1.000,1.000,0.965,-90.00,180.00,0.00,OPEN,0
665757.604,3,0,0,1.000,1.000,0.972,-90.00,180.00,0.00,OPEN,0
665757.654,3,0,0,1.000,1.000,0.979,-90.00,180.00,0.00,OPEN,0
665757.704,3,0,0,1.000,1.000,0.981,-90.00,180.00,0.00,OPEN,0
665757.754,3,0,0,1.000,1.000,0.981,-90.00,180.00,0.00,OPEN,0
665757.804,3,0,0,1.000,1.000,0.979,-90.00,180.00,0.00,OPEN,0
665757.854,3,0,0,1.000,1.000,0.972,-90.00,180.00,0.00,OPEN,0
665757.903,3,0,0,1.000,1.000,0.946,-90.00,180.00,0.00,OPEN,0
665757.954,3,0,0,1.000,1.000,0.910,-90.00,180.00,0.00,OPEN,0
665758.004,3,0,0,1.000,1.000,0.848,-90.00,180.00,0.00,OPEN,0
665758.054,3,0,0,1.000,1.000,0.789,-90.00,180.00,0.00,OPEN,0
665758.104,3,0,0,1.000,1.000,0.723,-90.00,180.00,0.00,OPEN,0
665758.154,3,0,0,1.000,1.000,0.663,-90.00,180.00,0.00,OPEN,0
665758.204,3,1,0,1.000,1.000,0.627,-90.00,180.00,0.00,OPEN,0
665758.254,3,1,0,1.000,0.999,0.636,-90.00,180.00,0.00,OPEN,0
665758.304,3,1,0,1.000,0.999,0.620,-90.00,180.00,0.00,OPEN,0
665758.354,3,1,0,1.000,0.998,0.647,-90.00,180.00,0.00,OPEN,0
665758.404,3,1,0,1.000,0.995,0.725,-90.00,180.00,0.00,OPEN,0
665758.454,3,1,0,1.000,0.989,0.789,-90.00,180.00,0.00,OPEN,0
665758.504,3,1,0,1.000,0.975,0.826,-90.00,180.00,0.00,OPEN,0
665758.554,3,1,0,1.000,0.961,0.817,-90.00,180.00,0.00,OPEN,0
