t,hand,elbow,shoulder,p_hand,p_elbow,p_shoulder,J2,J3,J6,grip_state,cmd_sent
5755.838,0,0,0,1.000,1.000,1.000,-90.00,180.00,0.00,OPEN,0
5755.854,0,0,0,1.000,1.000,1.000,-90.00,180.00,0.00,OPEN,0
5755.864,0,0,0,1.000,1.000,1.000,-90.00,180.00,0.00,OPEN,0
5755.873,0,0,0,1.000,1.000,1.000,-90.00,180.00,0.00,OPEN,0
5755.878,0,0,0,1.000,1.000,1.000,-90.00,180.00,0.00,OPEN,0
5755.886,0,0,0,1.000,1.000,1.000,-90.00,180.00,0.00,OPEN,0
5755.893,0,0,0,1.000,1.000,1.000,-90.00,180.00,0.00,OPEN,0
5755.898,0,0,0,1.000,1.000,1.000,-90.00,180.00,0.00,OPEN,0
5755.907,0,0,0,1.000,1.000,1.000,-90.00,180.00,0.00,OPEN,0
5755.913,0,0,0,1.000,1.000,1.000,-90.00,180.00,0.00,OPEN,0
5755.920,0,0,0,1.000,1.000,1.000,-90.00,180.00,0.00,OPEN,0
5755.928,0,0,0,1.000,1.000,1.000,-90.00,180.00,0.00,OPEN,0
5755.936,0,0,0,1.000,1.000,1.000,-90.00,180.00,0.00,OPEN,0
5755.945,0,0,0,1.000,1.000,1.000,-90.00,180.00,0.00,OPEN,0
5755.952,0,0,0,1.000,1.000,1.000,-90.00,180.00,0.00,OPEN,0
5755.959,0,0,0,1.000,1.000,1.000,-90.00,180.00,0.00,OPEN,0
5755.967,0,0,0,1.000,1.000,1.000,-90.00,180.00,0.00,OPEN,0
5755.976,0,0,0,1.000,1.000,1.000,-90.00,180.00,0.00,OPEN,0
5755.982,0,0,0,1.000,1.000,1.000,-90.00,180.00,0.00,OPEN,0
5755.990,0,0,0,1.000,1.000,1.000,-90.00,180.00,0.00,OPEN,0
5755.995,0,0,0,1.000,1.000,1.000,-90.00,180.00,0.00,OPEN,0
5756.002,0,0,0,1.000,1.000,1.000,-90.00,180.00,0.00,OPEN,0
5756.009,0,0,0,1.000,1.000,1.000,-90.00,180.00,0.00,OPEN,0
5756.014,0,0,0,1.000,1.000,1.000,-90.00,180.00,0.00,OPEN,0
5756.023,0,0,0,1.000,1.000,1.000,-90.00,180.00,0.00,OPEN,0
5756.029,0,0,0,1.000,1.000,1.000,-90.00,180.00,0.00,OPEN,0
5756.038,0,0,0,1.000,1.000,1.000,-90.00,180.00,0.00,OPEN,0
5756.044,0,0,0,1.000,1.000,1.000,-90.00,180.00,0.00,OPEN,0
5756.051,0,0,0,1.000,1.000,1.000,-90.00,180.00,0.00,OPEN,0
5756.060,0,0,0,1.000,1.000,1.000,-90.00,180.00,0.00,OPEN,0
5756.067,0,0,0,1.000,1.000,1.000,-90.00,180.00,0.00,OPEN,0
5756.105,0,0,0,1.000,1.000,1.000,-90.00,180.00,0.00,OPEN,0
5756.113,0,0,0,1.000,1.000,1.000,-90.00,180.00,0.00,OPEN,0
5756.123,0,0,0,1.000,1.000,1.000,-90.00,180.00,0.00,OPEN,0
5756.128,0,0,0,1.000,1.000,1.000,-90.00,180.00,0.00,OPEN,0
5756.137,0,0,0,1.000,1.000,1.000,-90.00,180.00,0.00,OPEN,0
5756.143,0,0,0,1.000,1.000,1.000,-90.00,180.00,0.00,OPEN,0
5756.149,0,0,0,1.000,1.000,1.000,-90.00,180.00,0.00,OPEN,0
5756.157,0,0,0,1.000,1.000,1.000,-90.00,180.00,0.00,OPEN,0
5756.162,0,0,0,1.000,1.000,1.000,-90.00,180.00,0.00,OPEN,0
5756.170,0,0,0,1.000,1.000,1.000,-90.00,180.00,0.00,OPEN,0
5756.176,0,0,0,1.000,1.000,1.000,-90.00,180.00,0.00,OPEN,0
5756.182,0,0,0,1.000,1.000,1.000,-90.00,180.00,0.00,OPEN,0
5756.190,0,0,0,1.000,1.000,1.000,-90.00,180.00,0.00,OPEN,0
5756.196,0,0,0,1.000,1.000,1.000,-90.00,180.00,0.00,OPEN,0
5756.205,0,0,0,1.000,1.000,1.000,-90.00,180.00,0.00,OPEN,0
5756.211,0,0,0,1.000,1.000,1.000,-90.00,180.00,0.00,OPEN,0
5756.217,0,0,0,1.000,1.000,1.000,-90.00,180.00,0.00,OPEN,0
5756.226,0,0,0,1.000,1.000,1.000,-90.00,180.00,0.00,OPEN,0
5756.232,0,0,0,1.000,1.000,1.000,-90.00,180.00,0.00,OPEN,0
5756.240,0,0,0,1.000,1.000,1.000,-90.00,180.00,0.00,OPEN,0
5756.246,0,0,0,1.000,1.000,1.000,-90.00,180.00,0.00,OPEN,0
5756.254,0,0,0,1.000,1.000,1.000,-90.00,180.00,0.00,OPEN,0
5756.261,0,0,0,1.000,1.000,1.000,-90.00,180.00,0.00,OPEN,0
5756.267,0,0,0,1.000,1.000,1.000,-90.00,180.00,0.00,OPEN,0
5756.275,0,0,0,1.000,1.000,1.000,-90.00,180.00,0.00,OPEN,0
5756.281,0,0,0,1.000,1.000,1.000,-90.00,180.00,0.00,OPEN,0
5756.289,0,0,0,1.000,1.000,1.000,-90.00,180.00,0.00,OPEN,0
5756.295,0,0,0,1.000,1.000,1.000,-90.00,180.00,0.00,OPEN,0
5756.303,0,0,0,1.000,1.000,1.000,-90.00,180.00,0.00,OPEN,0
5756.309,0,0,0,1.000,1.000,1.000,-90.00,180.00,0.00,OPEN,0
5756.316,0,0,0,1.000,1.000,1.000,-90.00,180.00,0.00,OPEN,0
5756.324,0,0,0,1.000,1.000,1.000,-90.00,180.00,0.00,OPEN,0
5756.329,0,0,0,1.000,1.000,1.000,-90.00,180.00,0.00,OPEN,0
5756.337,0,0,0,1.000,1.000,1.000,-90.00,180.00,0.00,OPEN,0
5756.343,0,0,0,1.000,1.000,1.000,-90.00,180.00,0.00,OPEN,0
5756.349,0,0,0,1.000,1.000,1.000,-90.00,180.00,0.00,OPEN,0
5756.357,0,0,0,1.000,1.000,1.000,-90.00,180.00,0.00,OPEN,0
5756.362,0,0,0,1.000,1.000,1.000,-90.00,180.00,0.00,OPEN,0
5756.373,0,0,0,1.000,1.000,1.000,-90.00,180.00,0.00,OPEN,0
5756.378,0,0,0,1.000,1.000,1.000,-90.00,180.00,0.00,OPEN,0
5756.384,0,0,0,1.000,1.000,1.000,-90.00,180.00,0.00,OPEN,0
5756.391,0,0,0,1.000,1.000,1.000,-90.00,180.00,0.00,OPEN,0
5756.397,0,0,0,1.000,1.000,1.000,-90.00,180.00,0.00,OPEN,0
5756.405,0,0,0,1.000,1.000,1.000,-90.00,180.00,0.00,OPEN,0
5756.410,0,0,0,1.000,1.000,1.000,-90.00,180.00,0.00,OPEN,0
5756.415,0,0,0,1.000,1.000,1.000,-90.00,180.00,0.00,OPEN,0
5756.424,0,0,0,1.000,1.000,1.000,-90.00,180.00,0.00,OPEN,0
5756.429,0,0,0,1.000,1.000,1.000,-90.00,180.00,0.00,OPEN,0
5756.437,0,0,0,1.000,1.000,1.000,-90.00,180.00,0.00,OPEN,0
5756.442,0,0,0,1.000,1.000,1.000,-90.00,180.00,0.00,OPEN,0
5756.447,0,0,0,1.000,1.000,1.000,-90.00,180.00,0.00,OPEN,0
5756.457,0,0,0,1.000,1.000,1.000,-90.00,180.00,0.00,OPEN,0
5756.462,0,0,0,1.000,1.000,1.000,-90.00,180.00,0.00,OPEN,0
5756.470,0,0,0,1.000,1.000,1.000,-90.00,180.00,0.00,OPEN,0
5756.476,0,0,0,1.000,1.000,1.000,-90.00,180.00,0.00,OPEN,0
5756.482,0,0,0,1.000,1.000,1.000,-90.00,180.00,0.00,OPEN,0
5756.490,0,0,0,1.000,1.000,1.000,-90.00,180.00,0.00,OPEN,0
5756.496,0,0,0,1.000,1.000,1.000,-90.00,180.00,0.00,OPEN,0
5756.505,0,0,0,1.000,1.000,1.000,-90.00,180.00,0.00,OPEN,0
5756.510,0,0,0,1.000,1.000,1.000,-90.00,180.00,0.00,OPEN,0
5756.518,0,0,0,1.000,1.000,1.000,-90.00,180.00,0.00,OPEN,0
5756.525,0,0,0,1.000,1.000,1.000,-90.00,180.00,0.00,OPEN,0
5756.531,0,0,0,1.000,1.000,1.000,-90.00,180.00,0.00,OPEN,0
5756.540,0,0,0,1.000,1.000,1.000,-90.00,180.00,0.00,OPEN,0
5756.545,0,0,0,1.000,1.000,1.000,-90.00,180.00,0.00,OPEN,0
5756.552,0,0,0,1.000,1.000,1.000,-90.00,180.00,0.00,OPEN,0
5756.558,0,0,0,1.000,1.000,1.000,-90.00,180.00,0.00,OPEN,0
5756.564,0,0,0,1.000,1.000,1.000,-90.00,180.00,0.00,OPEN,0
5756.573,0,0,0,1.000,1.000,1.000,-90.00,180.00,0.00,OPEN,0
5756.579,0,0,0,1.000,1.000,1.000,-90.00,180.00,0.00,OPEN,0
5756.621,0,0,0,1.000,1.000,1.000,-90.00,180.00,0.00,OPEN,0
5756.670,0,0,0,1.000,1.000,1.000,-90.00,180.00,0.00,OPEN,0
5756.719,0,0,0,1.000,1.000,1.000,-90.00,180.00,0.00,OPEN,0
5756.772,0,0,0,1.000,1.000,1.000,-90.00,180.00,0.00,OPEN,0
5756.822,0,0,0,1.000,1.000,1.000,-90.00,180.00,0.00,OPEN,0
5756.885,0,0,0,1.000,1.000,1.000,-90.00,180.00,0.00,OPEN,0
5756.920,0,0,0,1.000,1.000,1.000,-90.00,180.00,0.00,OPEN,0
5756.973,0,0,0,1.000,1.000,1.000,-90.00,180.00,0.00,OPEN,0
5757.020,0,0,0,1.000,1.000,1.000,-90.00,180.00,0.00,OPEN,0
5757.072,0,0,0,1.000,1.000,1.000,-90.00,180.00,0.00,OPEN,0
5757.120,0,0,0,1.000,1.000,1.000,-90.00,180.00,0.00,OPEN,0
5757.171,0,0,0,1.000,1.000,1.000,-90.00,180.00,0.00,OPEN,0
5757.221,0,0,0,1.000,1.000,1.000,-90.00,180.00,0.00,OPEN,0
5757.270,0,0,0,1.000,1.000,1.000,-90.00,180.00,0.00,OPEN,0
5757.320,0,0,0,1.000,1.000,1.000,-90.00,180.00,0.00,OPEN,0
5757.371,0,0,0,1.000,1.000,1.000,-90.00,180.00,0.00,OPEN,0
5757.421,0,0,0,1.000,1.000,1.000,-90.00,180.00,0.00,OPEN,0
5757.469,0,0,0,1.000,1.000,1.000,-90.00,180.00,0.00,OPEN,0
5757.520,0,0,0,1.000,1.000,1.000,-90.00,180.00,0.00,OPEN,0
5757.571,0,0,0,1.000,1.000,1.000,-90.00,180.00,0.00,OPEN,0
5757.620,0,0,0,1.000,1.000,1.000,-90.00,180.00,0.00,OPEN,0
5757.672,0,0,0,1.000,1.000,1.000,-90.00,180.00,0.00,OPEN,0
5757.720,0,0,0,0.993,1.000,1.000,-90.00,180.00,0.00,OPEN,0
5757.770,0,0,0,0.996,1.000,1.000,-90.00,180.00,0.00,OPEN,0
5757.822,0,0,0,1.000,1.000,1.000,-90.00,180.00,0.00,OPEN,0
5757.871,0,0,0,0.999,1.000,1.000,-90.00,180.00,0.00,OPEN,0
5757.922,0,0,0,0.977,1.000,1.000,-90.00,180.00,0.00,OPEN,0
5757.971,0,0,0,0.858,1.000,1.000,-90.00,180.00,0.00,OPEN,0
5758.022,0,0,0,0.700,1.000,1.000,-90.00,180.00,0.00,OPEN,0
5758.070,0,0,0,0.375,1.000,1.000,-90.00,180.00,0.00,OPEN,0
5758.122,0,0,0,0.652,1.000,1.000,-90.00,180.00,0.00,OPEN,0
5758.170,0,0,0,0.732,1.000,1.000,-90.00,180.00,0.00,OPEN,0
5758.221,0,0,0,0.808,1.000,1.000,-90.00,180.00,0.00,OPEN,0
5758.270,0,0,0,0.853,1.000,1.000,-90.00,180.00,0.00,OPEN,0
5758.321,0,0,0,0.835,1.000,1.000,-90.00,180.00,0.00,OPEN,0
5758.370,0,0,0,0.781,1.000,1.000,-90.00,180.00,0.00,OPEN,0
5758.421,0,0,0,0.699,1.000,1.000,-90.00,180.00,0.00,OPEN,0
5758.469,0,0,0,0.630,1.000,1.000,-90.00,180.00,0.00,OPEN,0
5758.522,0,0,0,0.878,1.000,1.000,-90.00,180.00,0.00,OPEN,0
5758.570,0,0,0,0.972,1.000,1.000,-90.00,180.00,0.00,OPEN,0
5758.622,0,0,0,0.974,1.000,1.000,-90.00,180.00,0.00,OPEN,0
5758.671,0,0,0,0.978,1.000,1.000,-90.00,180.00,0.00,OPEN,0
5758.721,0,0,0,0.844,1.000,1.000,-90.00,180.00,0.00,OPEN,0
5758.770,0,0,0,0.588,1.000,1.000,-90.00,180.00,0.00,OPEN,0
5761.456,0,0,0,0.447,1.000,1.000,-90.00,180.00,0.00,OPEN,0
5761.463,0,0,0,0.602,1.000,1.000,-90.00,180.00,0.00,OPEN,0
5761.473,0,0,0,0.791,1.000,1.000,-90.00,180.00,0.00,OPEN,0
5761.478,0,0,0,0.858,1.000,1.000,-90.00,180.00,0.00,OPEN,0
5761.488,0,0,0,0.660,1.000,1.000,-90.00,180.00,0.00,OPEN,0
5761.494,0,0,0,0.593,1.000,1.000,-90.00,180.00,0.00,OPEN,0
5761.503,0,0,0,0.521,1.000,1.000,-90.00,180.00,0.00,OPEN,0
5761.508,0,0,0,0.538,1.000,1.000,-90.00,180.00,0.00,OPEN,0
5761.515,0,0,0,0.547,1.000,1.000,-90.00,180.00,0.00,OPEN,0
5761.523,0,0,0,0.562,1.000,1.000,-90.00,180.00,0.00,OPEN,0
5761.528,0,0,0,0.650,1.000,1.000,-90.00,180.00,0.00,OPEN,0
5761.534,0,0,0,0.515,1.000,1.000,-90.00,180.00,0.00,OPEN,0
5761.541,0,0,0,0.533,1.000,1.000,-90.00,180.00,0.00,OPEN,0
5761.547,0,0,0,0.797,1.000,1.000,-90.00,180.00,0.00,OPEN,0
5761.555,0,0,0,0.508,1.000,1.000,-90.00,180.00,0.00,OPEN,0
5761.561,0,0,0,0.919,1.000,1.000,-90.00,180.00,0.00,OPEN,0
5761.568,0,0,0,0.975,1.000,1.000,-90.00,180.00,0.00,OPEN,0
5761.574,0,0,0,0.997,1.000,1.000,-90.00,180.00,0.00,OPEN,0
5761.581,0,0,0,1.000,1.000,1.000,-90.00,180.00,0.00,OPEN,0
5761.589,0,0,0,1.000,1.000,1.000,-90.00,180.00,0.00,OPEN,0
5761.595,0,0,0,1.000,1.000,1.000,-90.00,180.00,0.00,OPEN,0
5761.603,0,0,0,1.000,1.000,1.000,-90.00,180.00,0.00,OPEN,0
5761.609,0,0,0,1.000,1.000,1.000,-90.00,180.00,0.00,OPEN,0
5761.614,0,0,0,0.999,1.000,1.000,-90.00,180.00,0.00,OPEN,0
5761.623,0,0,0,1.000,1.000,1.000,-90.00,180.00,0.00,OPEN,0
5761.628,0,0,0,1.000,1.000,1.000,-90.00,180.00,0.00,OPEN,0
5761.637,0,0,0,1.000,1.000,1.000,-90.00,180.00,0.00,OPEN,0
5761.643,0,0,0,1.000,1.000,1.000,-90.00,180.00,0.00,OPEN,0
5761.649,0,0,0,1.000,1.000,1.000,-90.00,180.00,0.00,OPEN,0
5761.657,0,0,0,1.000,1.000,1.000,-90.00,180.00,0.00,OPEN,0
5761.663,0,0,0,1.000,1.000,1.000,-90.00,180.00,0.00,OPEN,0
5761.670,0,0,0,1.000,1.000,1.000,-90.00,180.00,0.00,OPEN,0
5761.677,0,0,0,1.000,1.000,1.000,-90.00,180.00,0.00,OPEN,0
5761.684,0,0,0,1.000,1.000,1.000,-90.00,180.00,0.00,OPEN,0
5761.692,0,0,0,1.000,1.000,1.000,-90.00,180.00,0.00,OPEN,0
5761.698,0,0,0,1.000,1.000,1.000,-90.00,180.00,0.00,OPEN,0
5761.705,0,0,0,1.000,1.000,1.000,-90.00,180.00,0.00,OPEN,0
5761.710,0,0,0,1.000,1.000,1.000,-90.00,180.00,0.00,OPEN,0
5761.720,0,0,0,1.000,1.000,1.000,-90.00,180.00,0.00,OPEN,0
5761.726,0,0,0,1.000,1.000,1.000,-90.00,180.00,0.00,OPEN,0
5761.732,0,0,0,1.000,1.000,1.000,-90.00,180.00,0.00,OPEN,0
5761.741,0,0,0,1.000,1.000,1.000,-90.00,180.00,0.00,OPEN,0
5761.745,0,0,0,1.000,1.000,1.000,-90.00,180.00,0.00,OPEN,0
5761.754,0,0,0,1.000,1.000,1.000,-90.00,180.00,0.00,OPEN,0
5761.759,0,0,0,1.000,1.000,1.000,-90.00,180.00,0.00,OPEN,0
5761.766,0,0,0,1.000,1.000,1.000,-90.00,180.00,0.00,OPEN,0
5761.774,0,0,0,1.000,1.000,1.000,-90.00,180.00,0.00,OPEN,0
5761.780,0,0,0,1.000,1.000,1.000,-90.00,180.00,0.00,OPEN,0
5761.788,0,0,0,1.000,1.000,1.000,-90.00,180.00,0.00,OPEN,0
5761.794,0,0,0,1.000,1.000,1.000,-90.00,180.00,0.00,OPEN,0
5761.800,0,0,0,1.000,1.000,1.000,-90.00,180.00,0.00,OPEN,0
5761.807,0,0,0,1.000,1.000,1.000,-90.00,180.00,0.00,OPEN,0
5761.813,0,0,0,1.000,1.000,1.000,-90.00,180.00,0.00,OPEN,0
5761.821,0,0,0,1.000,1.000,1.000,-90.00,180.00,0.00,OPEN,0
5761.826,0,0,0,1.000,1.000,1.000,-90.00,180.00,0.00,OPEN,0
5761.835,0,0,0,1.000,1.000,1.000,-90.00,180.00,0.00,OPEN,0
5761.842,0,0,0,1.000,1.000,0.999,-90.00,180.00,0.00,OPEN,0
5761.848,0,0,0,1.000,1.000,0.999,-90.00,180.00,0.00,OPEN,0
5761.856,0,0,0,1.000,1.000,0.999,-90.00,180.00,0.00,OPEN,0
5761.861,0,0,0,1.000,1.000,0.999,-90.00,180.00,0.00,OPEN,0
5761.869,0,0,0,1.000,1.000,0.999,-90.00,180.00,0.00,OPEN,0
5761.875,0,0,0,1.000,1.000,1.000,-90.00,180.00,0.00,OPEN,0
5761.921,0,0,0,1.000,1.000,1.000,-90.00,180.00,0.00,OPEN,0
5761.971,0,0,0,1.000,1.000,1.000,-90.00,180.00,0.00,OPEN,0
5762.020,0,0,0,1.000,0.999,1.000,-90.00,180.00,0.00,OPEN,0
5762.071,0,0,0,1.000,0.998,1.000,-90.00,180.00,0.00,OPEN,0
5762.119,0,0,0,1.000,0.997,1.000,-90.00,180.00,0.00,OPEN,0
5762.170,0,0,0,1.000,0.997,1.000,-90.00,180.00,0.00,OPEN,0
5762.221,0,0,0,1.000,0.998,1.000,-90.00,180.00,0.00,OPEN,0
5762.269,0,0,0,1.000,0.999,1.000,-90.00,180.00,0.00,OPEN,0
5762.321,0,0,0,1.000,1.000,1.000,-90.00,180.00,0.00,OPEN,0
5762.370,0,0,0,1.000,1.000,1.000,-90.00,180.00,0.00,OPEN,0
5762.422,0,0,0,1.000,1.000,1.000,-90.00,180.00,0.00,OPEN,0
5762.468,0,0,0,1.000,1.000,1.000,-90.00,180.00,0.00,OPEN,0
5762.521,0,0,0,1.000,1.000,1.000,-90.00,180.00,0.00,OPEN,0
5762.570,0,0,0,1.000,1.000,1.000,-90.00,180.00,0.00,OPEN,0
5762.620,0,0,0,1.000,1.000,1.000,-90.00,180.00,0.00,OPEN,0
5762.669,0,0,0,1.000,1.000,0.999,-90.00,180.00,0.00,OPEN,0
5762.720,0,0,0,1.000,1.000,0.999,-90.00,180.00,0.00,OPEN,0
5762.769,0,0,0,1.000,1.000,0.999,-90.00,180.00,0.00,OPEN,0
5762.820,0,0,0,1.000,1.000,0.999,-90.00,180.00,0.00,OPEN,0
5762.869,0,0,0,1.000,1.000,1.000,-90.00,180.00,0.00,OPEN,0
5762.919,0,0,0,1.000,0.999,1.000,-90.00,180.00,0.00,OPEN,0
5762.969,0,0,0,1.000,0.998,1.000,-90.00,180.00,0.00,OPEN,0
5763.019,0,0,0,1.000,0.997,1.000,-90.00,180.00,0.00,OPEN,0
5763.070,0,0,0,1.000,0.998,1.000,-90.00,180.00,0.00,OPEN,0
5763.121,0,0,0,1.000,1.000,1.000,-90.00,180.00,0.00,OPEN,0
5763.169,0,0,0,1.000,1.000,1.000,-90.00,180.00,0.00,OPEN,0
5763.221,0,0,0,1.000,1.000,1.000,-90.00,180.00,0.00,OPEN,0
5763.270,0,0,0,1.000,1.000,1.000,-90.00,180.00,0.00,OPEN,0
5763.322,0,0,0,1.000,1.000,1.000,-90.00,180.00,0.00,OPEN,0
5763.370,0,0,0,1.000,1.000,1.000,-90.00,180.00,0.00,OPEN,0
5763.422,0,0,0,1.000,1.000,1.000,-90.00,180.00,0.00,OPEN,0
5763.471,0,0,0,1.000,1.000,1.000,-90.00,180.00,0.00,OPEN,0
5763.521,0,0,0,1.000,1.000,1.000,-90.00,180.00,0.00,OPEN,0
5763.569,0,0,0,1.000,1.000,1.000,-90.00,180.00,0.00,OPEN,0
5763.621,0,0,0,1.000,1.000,1.000,-90.00,180.00,0.00,OPEN,0
5763.669,0,0,0,1.000,1.000,1.000,-90.00,180.00,0.00,OPEN,0
5763.721,0,0,0,1.000,1.000,1.000,-90.00,180.00,0.00,OPEN,0
5763.772,0,0,0,0.999,1.000,1.000,-90.00,180.00,0.00,OPEN,0
5763.820,0,0,0,0.998,1.000,1.000,-90.00,180.00,0.00,OPEN,0
5763.871,0,0,0,0.958,1.000,1.000,-90.00,180.00,0.00,OPEN,0
5763.920,0,0,0,0.977,1.000,1.000,-90.00,180.00,0.00,OPEN,0
5763.970,0,0,0,0.989,1.000,1.000,-90.00,180.00,0.00,OPEN,0
5764.020,0,0,0,0.731,1.000,1.000,-90.00,180.00,0.00,OPEN,0
5764.070,0,0,0,0.778,1.000,1.000,-90.00,180.00,0.00,OPEN,0
5764.119,0,0,0,0.862,1.000,1.000,-90.00,180.00,0.00,OPEN,0
5764.171,0,0,0,0.945,1.000,1.000,-90.00,180.00,0.00,OPEN,0
5764.219,0,0,0,0.985,1.000,1.000,-90.00,180.00,0.00,OPEN,0
5764.271,0,0,0,0.993,1.000,1.000,-90.00,180.00,0.00,OPEN,0
5764.319,1,0,0,0.995,1.000,1.000,-90.00,180.00,4.50,OPEN,1
5764.477,1,0,0,0.995,1.000,1.000,-90.00,180.00,9.00,OPEN,1
5764.496,1,0,0,0.993,1.000,1.000,-90.00,180.00,9.00,OPEN,0
5764.505,1,0,0,0.986,1.000,1.000,-90.00,180.00,9.00,OPEN,0
5764.522,1,0,0,0.959,1.000,1.000,-90.00,180.00,9.00,OPEN,0
5764.572,1,0,0,0.718,1.000,1.000,-90.00,180.00,9.00,OPEN,0
5764.620,1,0,0,0.579,1.000,1.000,-90.00,180.00,13.50,OPEN,1
5764.702,1,0,0,0.791,1.000,1.000,-90.00,180.00,13.50,OPEN,0
5764.720,1,0,0,0.694,1.000,1.000,-90.00,180.00,13.50,OPEN,0
5764.768,1,0,0,0.544,1.000,1.000,-90.00,180.00,18.00,OPEN,1
5764.901,1,0,0,0.499,1.000,1.000,-90.00,180.00,22.50,OPEN,1
5764.931,1,0,0,0.627,1.000,1.000,-90.00,180.00,22.50,OPEN,0
5764.940,1,0,0,0.670,1.000,1.000,-90.00,180.00,22.50,OPEN,0
5764.973,1,0,0,0.692,1.000,1.000,-90.00,180.00,22.50,OPEN,0
5765.020,1,0,0,0.753,1.000,1.000,-90.00,180.00,27.00,OPEN,1
5765.103,1,0,0,0.773,1.000,1.000,-90.00,180.00,27.00,OPEN,0
5765.120,1,0,0,0.798,1.000,1.000,-90.00,180.00,31.50,OPEN,1
5765.171,1,0,0,0.759,1.000,1.000,-90.00,180.00,31.50,OPEN,0
5765.219,1,0,0,0.646,1.000,1.000,-90.00,180.00,31.50,OPEN,0
5765.270,1,0,0,0.531,1.000,1.000,-90.00,180.00,36.00,OPEN,1
5765.322,1,0,0,0.698,1.000,1.000,-90.00,180.00,36.00,OPEN,0
5765.370,1,0,0,0.786,1.000,1.000,-90.00,180.00,36.00,OPEN,0
5765.420,1,0,0,0.776,1.000,1.000,-90.00,180.00,40.50,OPEN,1
5765.502,1,0,0,0.514,1.000,1.000,-90.00,180.00,40.50,OPEN,0
5765.519,1,0,0,0.587,1.000,1.000,-90.00,180.00,40.50,OPEN,0
5765.571,1,0,0,0.693,1.000,1.000,-90.00,180.00,45.00,OPEN,1
5765.620,1,0,0,0.717,1.000,1.000,-90.00,180.00,45.00,OPEN,0
5765.671,1,0,0,0.724,1.000,1.000,-90.00,180.00,45.00,OPEN,0
5765.720,1,0,0,0.712,1.000,1.000,-90.00,180.00,49.50,OPEN,1
5765.770,1,0,0,0.520,1.000,1.000,-90.00,180.00,49.50,OPEN,0
5765.819,1,0,0,0.466,1.000,1.000,-90.00,180.00,49.50,OPEN,0
5765.870,1,0,0,0.460,1.000,1.000,-90.00,180.00,54.00,OPEN,1
5765.921,1,0,0,0.371,1.000,1.000,-90.00,180.00,54.00,OPEN,0
5765.972,1,0,0,0.440,1.000,1.000,-90.00,180.00,58.50,OPEN,1
5766.102,1,0,0,0.807,1.000,1.000,-90.00,180.00,63.00,OPEN,1
5766.156,1,0,0,0.922,1.000,1.000,-90.00,180.00,63.00,OPEN,0
5766.161,1,0,0,0.906,1.000,1.000,-90.00,180.00,63.00,OPEN,0
5766.171,1,0,0,0.862,1.000,1.000,-90.00,180.00,63.00,OPEN,0
5766.220,1,0,0,0.680,1.000,1.000,-90.00,180.00,67.50,OPEN,1
5766.301,1,0,0,0.627,1.000,1.000,-90.00,180.00,67.50,OPEN,0
5766.320,1,0,0,0.763,1.000,1.000,-90.00,180.00,67.50,OPEN,0
5766.369,1,0,0,0.865,1.000,1.000,-90.00,180.00,72.00,OPEN,1
5766.420,1,0,0,0.955,1.000,1.000,-90.00,180.00,72.00,OPEN,0
5766.469,1,0,0,0.950,1.000,1.000,-90.00,180.00,76.50,OPEN,1
5766.520,1,0,0,0.800,1.000,1.000,-90.00,180.00,76.50,OPEN,0
5766.569,1,0,0,0.997,1.000,1.000,-90.00,180.00,81.00,OPEN,1
5766.620,1,0,0,1.000,1.000,1.000,-90.00,180.00,81.00,OPEN,0
5766.671,1,0,0,1.000,1.000,1.000,-90.00,180.00,85.50,OPEN,1
5766.720,1,0,0,1.000,1.000,1.000,-90.00,180.00,85.50,OPEN,0
5766.772,1,0,0,1.000,1.000,1.000,-90.00,180.00,90.00,OPEN,1
5766.821,1,0,0,1.000,1.000,1.000,-90.00,180.00,90.00,OPEN,0
5766.871,1,0,0,1.000,1.000,1.000,-90.00,180.00,90.00,OPEN,0
5766.919,0,0,0,1.000,1.000,1.000,-90.00,180.00,90.00,OPEN,0
5766.973,0,0,0,1.000,1.000,1.000,-90.00,180.00,90.00,OPEN,0
5767.018,0,0,0,1.000,1.000,1.000,-90.00,180.00,90.00,OPEN,0
5767.068,0,0,0,1.000,1.000,1.000,-90.00,180.00,90.00,OPEN,0
5767.121,0,0,0,1.000,1.000,1.000,-90.00,180.00,90.00,OPEN,0
5767.169,0,0,0,1.000,1.000,1.000,-90.00,180.00,90.00,OPEN,0
5767.220,0,0,0,1.000,1.000,1.000,-90.00,180.00,90.00,OPEN,0
5767.269,0,0,0,1.000,1.000,1.000,-90.00,180.00,90.00,OPEN,0
5767.318,0,0,0,1.000,1.000,1.000,-90.00,180.00,90.00,OPEN,0
5767.370,0,0,0,1.000,1.000,1.000,-90.00,180.00,90.00,OPEN,0
5767.418,0,0,0,1.000,1.000,1.000,-90.00,180.00,90.00,OPEN,0
5767.469,0,0,0,1.000,1.000,1.000,-90.00,180.00,90.00,OPEN,0
5767.519,0,0,0,1.000,1.000,1.000,-90.00,180.00,90.00,OPEN,0
5767.568,0,0,0,1.000,1.000,1.000,-90.00,180.00,90.00,OPEN,0
5767.621,0,0,0,1.000,1.000,1.000,-90.00,180.00,90.00,OPEN,0
5767.669,0,0,0,1.000,1.000,1.000,-90.00,180.00,90.00,OPEN,0
5767.720,0,0,0,1.000,1.000,1.000,-90.00,180.00,90.00,OPEN,0
5767.769,0,0,0,0.958,1.000,1.000,-90.00,180.00,90.00,OPEN,0
5767.821,0,0,0,0.505,1.000,1.000,-90.00,180.00,90.00,OPEN,0
5767.870,0,0,0,0.970,1.000,1.000,-90.00,180.00,90.00,OPEN,0
5767.921,0,0,0,0.997,1.000,1.000,-90.00,180.00,90.00,OPEN,0
5767.969,0,0,0,0.999,1.000,1.000,-90.00,180.00,90.00,OPEN,0
5768.021,0,0,0,1.000,1.000,1.000,-90.00,180.00,90.00,OPEN,0
5768.069,0,0,0,1.000,1.000,1.000,-90.00,180.00,90.00,OPEN,0
5768.120,0,0,0,0.999,1.000,1.000,-90.00,180.00,90.00,OPEN,0
5768.168,0,0,0,0.993,1.000,1.000,-90.00,180.00,90.00,OPEN,0
5768.220,2,0,0,0.936,1.000,1.000,-90.00,180.00,85.50,OPEN,1
5768.274,2,0,0,0.766,1.000,1.000,-90.00,180.00,85.50,OPEN,0
5768.319,2,0,0,0.707,1.000,1.000,-90.00,180.00,85.50,OPEN,0
5768.370,2,0,0,0.721,1.000,1.000,-90.00,180.00,81.00,OPEN,1
5768.421,2,0,0,0.725,1.000,1.000,-90.00,180.00,81.00,OPEN,0
5768.470,2,0,0,0.818,1.000,1.000,-90.00,180.00,76.50,OPEN,1
5768.521,2,0,0,0.971,1.000,1.000,-90.00,180.00,76.50,OPEN,0
5768.570,2,0,0,0.998,1.000,1.000,-90.00,180.00,76.50,OPEN,0
5768.619,2,0,0,1.000,1.000,1.000,-90.00,180.00,72.00,OPEN,1
5768.702,2,0,0,1.000,1.000,1.000,-90.00,180.00,72.00,OPEN,0
5768.719,2,0,0,1.000,1.000,1.000,-90.00,180.00,72.00,OPEN,0
5768.768,2,0,0,1.000,1.000,1.000,-90.00,180.00,67.50,OPEN,1
5768.821,2,0,0,1.000,1.000,1.000,-90.00,180.00,67.50,OPEN,0
5768.870,2,0,0,1.000,1.000,1.000,-90.00,180.00,63.00,OPEN,1
5768.920,2,0,0,1.000,1.000,1.000,-90.00,180.00,63.00,OPEN,0
5768.968,2,0,0,1.000,1.000,1.000,-90.00,180.00,63.00,OPEN,0
5769.018,2,0,0,1.000,1.000,1.000,-90.00,180.00,58.50,OPEN,1
5769.102,2,0,0,1.000,1.000,1.000,-90.00,180.00,58.50,OPEN,0
5769.120,2,0,0,1.000,1.000,1.000,-90.00,180.00,54.00,OPEN,1
5769.178,2,0,0,1.000,1.000,1.000,-90.00,180.00,54.00,OPEN,0
5769.219,2,0,0,1.000,1.000,1.000,-90.00,180.00,54.00,OPEN,0
5769.270,2,0,0,1.000,1.000,1.000,-90.00,180.00,49.50,OPEN,1
5769.322,2,0,0,1.000,1.000,1.000,-90.00,180.00,49.50,OPEN,0
5769.370,2,0,0,1.000,1.000,1.000,-90.00,180.00,49.50,OPEN,0
5769.419,2,0,0,1.000,1.000,1.000,-90.00,180.00,45.00,OPEN,1
5769.471,2,0,0,1.000,1.000,1.000,-90.00,180.00,45.00,OPEN,0
5769.520,2,0,0,1.000,1.000,1.000,-90.00,180.00,40.50,OPEN,1
5769.571,2,0,0,1.000,1.000,1.000,-90.00,180.00,40.50,OPEN,0
5769.620,2,0,0,1.000,1.000,1.000,-90.00,180.00,36.00,OPEN,1
5769.702,2,0,0,1.000,1.000,1.000,-90.00,180.00,36.00,OPEN,0
5769.719,2,0,0,1.000,1.000,1.000,-90.00,180.00,36.00,OPEN,0
5769.770,2,0,0,0.721,1.000,1.000,-90.00,180.00,31.50,OPEN,1
5769.829,2,0,0,0.999,1.000,1.000,-90.00,180.00,31.50,OPEN,0
5769.869,2,0,0,1.000,1.000,1.000,-90.00,180.00,31.50,OPEN,0
5769.920,2,0,0,1.000,1.000,1.000,-90.00,180.00,27.00,OPEN,1
5769.985,2,0,0,1.000,1.000,1.000,-90.00,180.00,27.00,OPEN,0
5770.018,2,0,0,1.000,1.000,1.000,-90.00,180.00,27.00,OPEN,0
5770.069,2,0,0,1.000,1.000,1.000,-90.00,180.00,22.50,OPEN,1
5770.121,2,0,0,1.000,1.000,1.000,-90.00,180.00,22.50,OPEN,0
5770.169,0,0,0,1.000,1.000,1.000,-90.00,180.00,22.50,OPEN,0
5770.219,0,0,0,1.000,1.000,1.000,-90.00,180.00,22.50,OPEN,0
5770.271,0,0,0,1.000,1.000,1.000,-90.00,180.00,22.50,OPEN,0
5770.319,0,0,0,1.000,1.000,1.000,-90.00,180.00,22.50,OPEN,0
5770.369,0,0,0,1.000,1.000,1.000,-90.00,180.00,22.50,OPEN,0
5770.419,0,0,0,1.000,1.000,1.000,-90.00,180.00,22.50,OPEN,0
5770.469,0,0,0,1.000,1.000,1.000,-90.00,180.00,22.50,OPEN,0
5770.519,0,0,0,1.000,1.000,1.000,-90.00,180.00,22.50,OPEN,0
5770.569,0,0,0,1.000,1.000,1.000,-90.00,180.00,22.50,OPEN,0
5770.619,0,0,0,1.000,1.000,1.000,-90.00,180.00,22.50,OPEN,0
5770.668,0,0,0,1.000,1.000,1.000,-90.00,180.00,22.50,OPEN,0
5770.720,0,0,0,1.000,1.000,1.000,-90.00,180.00,22.50,OPEN,0
5770.771,0,0,0,1.000,1.000,1.000,-90.00,180.00,22.50,OPEN,0
5770.818,0,0,0,1.000,1.000,1.000,-90.00,180.00,22.50,OPEN,0
5770.868,0,0,0,1.000,1.000,1.000,-90.00,180.00,22.50,OPEN,0
5770.919,0,0,0,1.000,1.000,1.000,-90.00,180.00,22.50,OPEN,0
5770.969,0,0,0,1.000,1.000,1.000,-90.00,180.00,22.50,OPEN,0
5771.019,0,0,0,1.000,1.000,1.000,-90.00,180.00,22.50,OPEN,0
5771.069,0,0,0,1.000,1.000,1.000,-90.00,180.00,22.50,OPEN,0
5771.119,0,0,0,1.000,1.000,1.000,-90.00,180.00,22.50,OPEN,0
5771.168,0,0,0,1.000,1.000,1.000,-90.00,180.00,22.50,OPEN,0
5771.221,0,0,0,0.999,1.000,1.000,-90.00,180.00,22.50,OPEN,0
5771.270,0,0,0,0.994,1.000,1.000,-90.00,180.00,22.50,OPEN,0
5771.318,0,0,0,0.913,1.000,1.000,-90.00,180.00,22.50,OPEN,0
5771.370,0,0,0,0.956,1.000,1.000,-90.00,180.00,22.50,OPEN,0
5771.419,0,0,0,1.000,1.000,1.000,-90.00,180.00,22.50,OPEN,0
5771.469,0,0,0,1.000,1.000,1.000,-90.00,180.00,22.50,OPEN,0
5771.519,0,0,0,1.000,1.000,1.000,-90.00,180.00,22.50,OPEN,0
5771.569,0,0,0,1.000,1.000,1.000,-90.00,180.00,22.50,OPEN,0
5771.618,0,0,0,1.000,1.000,1.000,-90.00,180.00,22.50,OPEN,0
5771.670,0,0,0,1.000,1.000,1.000,-90.00,180.00,22.50,OPEN,0
5771.719,3,0,0,1.000,1.000,1.000,-90.00,180.00,22.50,CLOSED,0
5771.902,3,0,0,1.000,1.000,1.000,-90.00,180.00,22.50,CLOSED,0
5771.909,3,0,0,1.000,1.000,1.000,-90.00,180.00,22.50,CLOSED,0
5771.918,3,0,0,1.000,1.000,1.000,-90.00,180.00,22.50,CLOSED,0
5771.923,3,0,0,1.000,1.000,1.000,-90.00,180.00,22.50,CLOSED,0
5771.969,3,0,0,1.000,1.000,1.000,-90.00,180.00,22.50,CLOSED,0
5772.017,3,0,0,1.000,1.000,1.000,-90.00,180.00,22.50,CLOSED,0
5772.069,3,0,0,1.000,1.000,1.000,-90.00,180.00,22.50,CLOSED,0
5772.118,3,0,0,1.000,1.000,1.000,-90.00,180.00,22.50,CLOSED,0
5772.169,3,0,0,1.000,1.000,1.000,-90.00,180.00,22.50,CLOSED,0
5772.219,3,0,0,1.000,1.000,1.000,-90.00,180.00,22.50,CLOSED,0
5772.269,3,0,0,1.000,1.000,1.000,-90.00,180.00,22.50,CLOSED,0
5772.319,3,0,0,1.000,1.000,1.000,-90.00,180.00,22.50,CLOSED,0
5772.369,3,0,0,1.000,1.000,1.000,-90.00,180.00,22.50,CLOSED,0
5772.419,3,0,0,1.000,1.000,1.000,-90.00,180.00,22.50,CLOSED,0
5772.469,3,0,0,1.000,1.000,1.000,-90.00,180.00,22.50,CLOSED,0
5772.519,3,0,0,1.000,1.000,1.000,-90.00,180.00,22.50,CLOSED,0
5772.570,3,0,0,1.000,1.000,1.000,-90.00,180.00,22.50,CLOSED,0
5772.618,3,0,0,1.000,1.000,1.000,-90.00,180.00,22.50,CLOSED,0
5772.669,3,0,0,1.000,1.000,1.000,-90.00,180.00,22.50,CLOSED,0
5772.718,3,0,0,1.000,1.000,1.000,-90.00,180.00,22.50,CLOSED,0
5772.781,3,0,0,1.000,1.000,1.000,-90.00,180.00,22.50,CLOSED,0
5772.823,3,0,0,1.000,1.000,1.000,-90.00,180.00,22.50,CLOSED,0
5772.869,3,0,0,1.000,1.000,1.000,-90.00,180.00,22.50,CLOSED,0
5772.919,3,0,0,1.000,1.000,1.000,-90.00,180.00,22.50,CLOSED,0
5772.970,3,0,0,1.000,1.000,1.000,-90.00,180.00,22.50,CLOSED,0
5773.019,3,0,0,1.000,1.000,1.000,-90.00,180.00,22.50,CLOSED,0
5773.068,3,0,0,1.000,1.000,1.000,-90.00,180.00,22.50,CLOSED,0
5773.120,3,0,0,1.000,1.000,1.000,-90.00,180.00,22.50,CLOSED,0
5773.168,3,0,0,1.000,1.000,1.000,-90.00,180.00,22.50,CLOSED,0
5773.220,3,0,0,1.000,1.000,1.000,-90.00,180.00,22.50,CLOSED,0
5773.268,3,0,0,1.000,1.000,1.000,-90.00,180.00,22.50,CLOSED,0
5773.319,3,0,0,1.000,1.000,1.000,-90.00,180.00,22.50,CLOSED,0
5773.370,3,0,0,1.000,1.000,1.000,-90.00,180.00,22.50,CLOSED,0
5773.418,3,0,0,1.000,1.000,1.000,-90.00,180.00,22.50,CLOSED,0
5773.469,3,0,0,1.000,1.000,1.000,-90.00,180.00,22.50,CLOSED,0
5773.518,3,0,0,1.000,1.000,1.000,-90.00,180.00,22.50,CLOSED,0
5773.568,3,0,0,1.000,1.000,1.000,-90.00,180.00,22.50,CLOSED,0
5773.619,3,0,0,1.000,1.000,1.000,-90.00,180.00,22.50,CLOSED,0
5773.668,3,0,0,1.000,1.000,1.000,-90.00,180.00,22.50,CLOSED,0
5773.720,3,0,0,1.000,1.000,1.000,-90.00,180.00,22.50,CLOSED,0
5773.781,3,0,0,1.000,1.000,1.000,-90.00,180.00,22.50,CLOSED,0
5773.820,3,0,0,1.000,1.000,1.000,-90.00,180.00,22.50,CLOSED,0
5773.869,3,0,0,1.000,1.000,1.000,-90.00,180.00,22.50,CLOSED,0
5773.919,3,0,0,1.000,1.000,1.000,-90.00,180.00,22.50,CLOSED,0
5773.969,3,0,0,0.938,1.000,1.000,-90.00,180.00,22.50,CLOSED,0
5774.019,3,0,0,0.999,1.000,1.000,-90.00,180.00,22.50,CLOSED,0
5774.070,3,0,0,1.000,1.000,1.000,-90.00,180.00,22.50,CLOSED,0
5774.121,3,0,0,1.000,1.000,1.000,-90.00,180.00,22.50,CLOSED,0
5774.168,3,0,0,1.000,1.000,1.000,-90.00,180.00,22.50,CLOSED,0
5774.218,3,0,0,1.000,1.000,1.000,-90.00,180.00,22.50,CLOSED,0
5774.269,3,0,0,1.000,1.000,1.000,-90.00,180.00,22.50,CLOSED,0
5774.318,3,0,0,1.000,1.000,1.000,-90.00,180.00,22.50,CLOSED,0
5774.369,0,0,0,1.000,1.000,1.000,-90.00,180.00,22.50,CLOSED,0
5774.420,0,0,0,1.000,1.000,1.000,-90.00,180.00,22.50,CLOSED,0
5774.468,0,0,0,1.000,1.000,1.000,-90.00,180.00,22.50,CLOSED,0
5774.518,0,0,0,1.000,1.000,1.000,-90.00,180.00,22.50,CLOSED,0
5774.569,0,0,0,1.000,1.000,1.000,-90.00,180.00,22.50,CLOSED,0
5774.618,0,0,0,1.000,1.000,1.000,-90.00,180.00,22.50,CLOSED,0
5774.669,0,0,0,1.000,1.000,1.000,-90.00,180.00,22.50,CLOSED,0
5774.719,0,0,0,1.000,1.000,1.000,-90.00,180.00,22.50,CLOSED,0
5774.770,0,0,0,1.000,1.000,1.000,-90.00,180.00,22.50,CLOSED,0
5774.822,0,0,0,1.000,1.000,1.000,-90.00,180.00,22.50,CLOSED,0
5774.869,0,0,0,1.000,1.000,1.000,-90.00,180.00,22.50,CLOSED,0
5774.920,0,0,0,1.000,1.000,1.000,-90.00,180.00,22.50,CLOSED,0
5774.970,0,0,0,1.000,1.000,1.000,-90.00,180.00,22.50,CLOSED,0
5775.018,0,0,0,1.000,1.000,1.000,-90.00,180.00,22.50,CLOSED,0
5775.068,0,0,0,1.000,1.000,1.000,-90.00,180.00,22.50,CLOSED,0
5775.118,0,0,0,1.000,1.000,1.000,-90.00,180.00,22.50,CLOSED,0
5775.169,0,0,0,1.000,1.000,1.000,-90.00,180.00,22.50,CLOSED,0
5775.219,0,0,0,1.000,1.000,1.000,-90.00,180.00,22.50,CLOSED,0
5775.268,0,0,0,1.000,1.000,1.000,-90.00,180.00,22.50,CLOSED,0
5775.319,0,0,0,0.973,1.000,1.000,-90.00,180.00,22.50,CLOSED,0
5775.368,0,0,0,0.951,1.000,1.000,-90.00,180.00,22.50,CLOSED,0
5775.419,0,0,0,1.000,1.000,1.000,-90.00,180.00,22.50,CLOSED,0
5775.471,0,0,0,1.000,1.000,1.000,-90.00,180.00,22.50,CLOSED,0
5775.520,0,0,0,1.000,1.000,1.000,-90.00,180.00,22.50,CLOSED,0
5775.569,0,0,0,1.000,1.000,1.000,-90.00,180.00,22.50,CLOSED,0
5775.620,0,0,0,1.000,1.000,1.000,-90.00,180.00,22.50,CLOSED,0
5775.669,0,0,0,1.000,1.000,1.000,-90.00,180.00,22.50,CLOSED,0
5775.720,0,0,0,1.000,1.000,1.000,-90.00,180.00,22.50,CLOSED,0
5775.768,3,0,0,1.000,1.000,1.000,-90.00,180.00,22.50,OPEN,0
5775.904,3,0,0,1.000,1.000,1.000,-90.00,180.00,22.50,OPEN,0
5775.913,3,0,0,1.000,1.000,1.000,-90.00,180.00,22.50,OPEN,0
5775.920,3,0,0,1.000,1.000,1.000,-90.00,180.00,22.50,OPEN,0
5775.969,3,0,0,1.000,1.000,1.000,-90.00,180.00,22.50,OPEN,0
5776.019,3,0,0,1.000,1.000,1.000,-90.00,180.00,22.50,OPEN,0
5776.069,3,0,0,1.000,1.000,1.000,-90.00,180.00,22.50,OPEN,0
5776.119,3,0,0,1.000,1.000,1.000,-90.00,180.00,22.50,OPEN,0
5776.169,3,0,0,1.000,1.000,1.000,-90.00,180.00,22.50,OPEN,0
5776.218,3,0,0,1.000,1.000,1.000,-90.00,180.00,22.50,OPEN,0
5776.268,3,0,0,1.000,1.000,1.000,-90.00,180.00,22.50,OPEN,0
5776.319,3,0,0,1.000,1.000,1.000,-90.00,180.00,22.50,OPEN,0
5776.368,3,0,0,1.000,1.000,1.000,-90.00,180.00,22.50,OPEN,0
5776.419,3,0,0,1.000,1.000,1.000,-90.00,180.00,22.50,OPEN,0
5776.469,3,0,0,1.000,1.000,1.000,-90.00,180.00,22.50,OPEN,0
5776.519,3,0,0,1.000,1.000,1.000,-90.00,180.00,22.50,OPEN,0
5776.571,3,0,0,1.000,1.000,1.000,-90.00,180.00,22.50,OPEN,0
5776.618,3,0,0,1.000,1.000,1.000,-90.00,180.00,22.50,OPEN,0
5776.668,3,0,0,1.000,1.000,1.000,-90.00,180.00,22.50,OPEN,0
5776.718,3,0,0,1.000,1.000,1.000,-90.00,180.00,22.50,OPEN,0
5776.769,3,0,0,1.000,1.000,1.000,-90.00,180.00,22.50,OPEN,0
5776.820,3,0,0,1.000,1.000,1.000,-90.00,180.00,22.50,OPEN,0
5776.868,3,0,0,1.000,1.000,1.000,-90.00,180.00,22.50,OPEN,0
5776.918,3,0,0,1.000,1.000,1.000,-90.00,180.00,22.50,OPEN,0
5776.969,3,0,0,1.000,1.000,1.000,-90.00,180.00,22.50,OPEN,0
5777.018,3,0,0,1.000,1.000,1.000,-90.00,180.00,22.50,OPEN,0
5777.069,3,0,0,0.991,1.000,1.000,-90.00,180.00,22.50,OPEN,0
5777.119,3,0,0,0.994,1.000,1.000,-90.00,180.00,22.50,OPEN,0
5777.169,3,0,0,0.990,1.000,1.000,-90.00,180.00,22.50,OPEN,0
5777.218,3,0,0,1.000,1.000,1.000,-90.00,180.00,22.50,OPEN,0
5777.269,3,0,0,1.000,1.000,1.000,-90.00,180.00,22.50,OPEN,0
5777.318,3,0,0,1.000,1.000,1.000,-90.00,180.00,22.50,OPEN,0
5777.369,3,0,0,1.000,1.000,1.000,-90.00,180.00,22.50,OPEN,0
5777.419,3,0,0,1.000,1.000,1.000,-90.00,180.00,22.50,OPEN,0
5777.469,3,0,0,1.000,1.000,1.000,-90.00,180.00,22.50,OPEN,0
5777.519,0,0,0,1.000,1.000,1.000,-90.00,180.00,22.50,OPEN,0
5777.568,0,0,0,1.000,1.000,1.000,-90.00,180.00,22.50,OPEN,0
5777.620,0,0,0,1.000,1.000,1.000,-90.00,180.00,22.50,OPEN,0
5777.669,0,0,0,1.000,1.000,1.000,-90.00,180.00,22.50,OPEN,0
5777.718,0,0,0,1.000,1.000,1.000,-90.00,180.00,22.50,OPEN,0
5777.768,0,0,0,1.000,1.000,1.000,-90.00,180.00,22.50,OPEN,0
5777.819,0,0,0,1.000,1.000,1.000,-90.00,180.00,22.50,OPEN,0
5777.869,0,0,0,1.000,1.000,1.000,-90.00,180.00,22.50,OPEN,0
5777.920,0,0,0,1.000,1.000,1.000,-90.00,180.00,22.50,OPEN,0
5777.969,0,0,0,1.000,1.000,1.000,-90.00,180.00,22.50,OPEN,0
5778.018,0,0,0,1.000,1.000,1.000,-90.00,180.00,22.50,OPEN,0
5778.068,0,0,0,1.000,1.000,1.000,-90.00,180.00,22.50,OPEN,0
5778.118,0,0,0,1.000,1.000,1.000,-90.00,180.00,22.50,OPEN,0
5778.169,0,0,0,1.000,1.000,1.000,-90.00,180.00,22.50,OPEN,0
5778.220,0,0,0,1.000,1.000,1.000,-90.00,180.00,22.50,OPEN,0
5778.267,0,0,0,1.000,1.000,1.000,-90.00,180.00,22.50,OPEN,0
5778.318,0,0,0,1.000,1.000,1.000,-90.00,180.00,22.50,OPEN,0
5778.369,0,0,0,1.000,1.000,1.000,-90.00,180.00,22.50,OPEN,0
5778.419,0,0,0,1.000,1.000,1.000,-90.00,180.00,22.50,OPEN,0
5778.468,0,0,0,1.000,1.000,1.000,-90.00,180.00,22.50,OPEN,0
5778.518,0,0,0,1.000,1.000,1.000,-90.00,180.00,22.50,OPEN,0
5778.568,0,0,0,1.000,1.000,1.000,-90.00,180.00,22.50,OPEN,0
5778.619,0,0,0,1.000,1.000,1.000,-90.00,180.00,22.50,OPEN,0
5778.668,0,0,0,1.000,1.000,1.000,-90.00,180.00,22.50,OPEN,0
5778.718,0,0,0,1.000,1.000,1.000,-90.00,180.00,22.50,OPEN,0
5778.768,0,0,0,1.000,1.000,1.000,-90.00,180.00,22.50,OPEN,0
5778.819,0,0,0,1.000,1.000,1.000,-90.00,180.00,22.50,OPEN,0
5778.869,0,0,0,1.000,1.000,1.000,-90.00,180.00,22.50,OPEN,0
5778.918,0,0,0,0.998,1.000,1.000,-90.00,180.00,22.50,OPEN,0
5778.969,0,0,0,0.889,1.000,1.000,-90.00,180.00,22.50,OPEN,0
5779.019,0,0,0,0.999,1.000,1.000,-90.00,180.00,22.50,OPEN,0
5779.069,0,0,0,1.000,1.000,1.000,-90.00,180.00,22.50,OPEN,0
5779.119,0,0,0,1.000,1.000,1.000,-90.00,180.00,22.50,OPEN,0
5779.169,0,0,0,1.000,0.881,1.000,-90.00,180.00,22.50,OPEN,0
5779.220,0,0,0,1.000,0.629,1.000,-90.00,180.00,22.50,OPEN,0
5779.268,0,0,0,0.998,0.992,1.000,-90.00,180.00,22.50,OPEN,0
5779.318,0,0,0,0.988,0.999,1.000,-90.00,180.00,22.50,OPEN,0
5779.369,2,0,0,0.815,1.000,1.000,-90.00,180.00,18.00,OPEN,1
5779.419,2,0,0,0.986,1.000,1.000,-90.00,180.00,18.00,OPEN,0
5779.468,2,0,0,0.997,1.000,1.000,-90.00,180.00,18.00,OPEN,0
5779.518,2,0,0,0.999,1.000,1.000,-90.00,180.00,13.50,OPEN,1
5779.572,2,0,0,1.000,1.000,1.000,-90.00,180.00,13.50,OPEN,0
5779.619,2,0,0,0.945,1.000,1.000,-90.00,180.00,9.00,OPEN,1
5779.704,2,0,0,0.813,1.000,1.000,-90.00,180.00,9.00,OPEN,0
5779.718,2,0,0,1.000,1.000,1.000,-90.00,180.00,9.00,OPEN,0
5779.770,2,0,0,1.000,1.000,1.000,-90.00,180.00,4.50,OPEN,1
5779.820,2,0,0,1.000,1.000,1.000,-90.00,180.00,4.50,OPEN,0
5779.868,2,0,0,1.000,1.000,1.000,-90.00,180.00,4.50,OPEN,0
5779.918,2,0,0,1.000,1.000,1.000,-90.00,180.00,0.00,OPEN,1
5779.971,3,0,0,1.000,1.000,1.000,-90.00,180.00,0.00,CLOSED,0
5780.018,3,0,0,1.000,1.000,1.000,-90.00,180.00,0.00,CLOSED,0
5780.068,3,0,0,1.000,1.000,1.000,-90.00,180.00,0.00,CLOSED,0
5780.119,3,0,0,1.000,1.000,1.000,-90.00,180.00,0.00,CLOSED,0
5780.168,3,0,0,1.000,1.000,1.000,-90.00,180.00,0.00,CLOSED,0
5780.220,3,0,0,1.000,1.000,1.000,-90.00,180.00,0.00,CLOSED,0
5780.270,3,0,0,1.000,1.000,1.000,-90.00,180.00,0.00,CLOSED,0
5780.318,3,0,0,0.996,1.000,1.000,-90.00,180.00,0.00,CLOSED,0
5780.368,3,0,0,1.000,1.000,1.000,-90.00,180.00,0.00,CLOSED,0
5780.418,3,0,0,0.997,1.000,1.000,-90.00,180.00,0.00,CLOSED,0
5780.470,3,0,0,1.000,1.000,1.000,-90.00,180.00,0.00,CLOSED,0
5780.519,3,0,0,1.000,1.000,1.000,-90.00,180.00,0.00,CLOSED,0
5780.568,3,0,0,1.000,1.000,0.901,-90.00,180.00,0.00,CLOSED,0
5780.618,3,0,0,1.000,1.000,1.000,-90.00,180.00,0.00,CLOSED,0
5780.669,3,0,0,1.000,1.000,1.000,-90.00,180.00,0.00,CLOSED,0
5780.719,0,0,0,1.000,1.000,1.000,-90.00,180.00,0.00,CLOSED,0
5780.769,0,0,0,1.000,1.000,1.000,-90.00,180.00,0.00,CLOSED,0
5780.820,0,0,0,1.000,1.000,1.000,-90.00,180.00,0.00,CLOSED,0
5780.870,0,0,0,1.000,1.000,1.000,-90.00,180.00,0.00,CLOSED,0
5780.920,0,0,0,1.000,1.000,1.000,-90.00,180.00,0.00,CLOSED,0
5780.970,0,0,0,1.000,1.000,1.000,-90.00,180.00,0.00,CLOSED,0
5781.019,0,0,0,1.000,1.000,1.000,-90.00,180.00,0.00,CLOSED,0
5781.068,0,0,0,1.000,1.000,1.000,-90.00,180.00,0.00,CLOSED,0
5781.119,0,0,0,1.000,1.000,1.000,-90.00,180.00,0.00,CLOSED,0
5781.168,0,0,0,1.000,1.000,1.000,-90.00,180.00,0.00,CLOSED,0
5781.220,0,0,0,1.000,1.000,1.000,-90.00,180.00,0.00,CLOSED,0
5781.268,0,0,0,1.000,1.000,1.000,-90.00,180.00,0.00,CLOSED,0
5781.319,0,0,0,1.000,1.000,1.000,-90.00,180.00,0.00,CLOSED,0
5781.370,0,0,0,1.000,1.000,1.000,-90.00,180.00,0.00,CLOSED,0
5781.419,0,0,0,1.000,1.000,1.000,-90.00,180.00,0.00,CLOSED,0
5781.472,0,1,1,1.000,1.000,1.000,-86.81,176.81,0.00,CLOSED,1
5781.526,0,1,1,1.000,1.000,1.000,-83.58,173.58,0.00,CLOSED,0
5781.568,0,1,1,1.000,1.000,1.000,-81.02,171.02,0.00,CLOSED,0
5781.618,0,1,1,1.000,1.000,1.000,-78.01,168.01,0.00,CLOSED,1
5781.670,0,1,1,1.000,1.000,1.000,-74.92,164.92,0.00,CLOSED,0
5781.719,0,1,1,1.000,1.000,1.000,-71.96,161.96,0.00,CLOSED,1
5781.774,0,1,1,1.000,1.000,1.000,-68.65,158.65,0.00,CLOSED,0
5781.818,0,1,1,1.000,1.000,1.000,-66.02,156.02,0.00,CLOSED,0
5781.869,0,1,1,1.000,1.000,1.000,-62.97,152.97,0.00,CLOSED,1
5781.920,0,1,1,1.000,1.000,1.000,-59.89,149.89,0.00,CLOSED,0
5781.969,0,1,1,1.000,1.000,1.000,-56.99,146.99,0.00,CLOSED,0
5782.018,0,1,1,1.000,1.000,1.000,-54.02,144.02,0.00,CLOSED,1
5782.068,0,1,1,1.000,1.000,1.000,-51.05,141.05,0.00,CLOSED,0
5782.118,0,1,1,1.000,1.000,1.000,-48.02,138.02,0.00,CLOSED,1
5782.169,0,1,1,1.000,1.000,1.000,-44.99,134.99,0.00,CLOSED,0
5782.219,0,1,1,1.000,1.000,1.000,-41.97,131.97,0.00,CLOSED,1
5782.268,0,1,1,1.000,1.000,1.000,-39.03,129.03,0.00,CLOSED,0
5782.318,0,1,1,1.000,1.000,1.000,-36.04,126.04,0.00,CLOSED,0
5782.370,0,1,1,1.000,1.000,1.000,-32.93,122.93,0.00,CLOSED,1
5782.449,0,1,1,1.000,1.000,1.000,-28.19,118.19,0.00,CLOSED,0
5782.468,0,1,1,1.000,1.000,1.000,-27.01,117.01,0.00,CLOSED,0
5782.518,0,1,1,1.000,1.000,1.000,-24.03,114.03,0.00,CLOSED,1
5782.569,0,1,1,1.000,1.000,1.000,-20.96,110.96,0.00,CLOSED,0
5782.617,0,1,1,1.000,1.000,1.000,-18.07,108.07,0.00,CLOSED,0
5782.669,0,1,1,1.000,1.000,1.000,-14.97,104.97,0.00,CLOSED,1
5782.718,0,1,1,1.000,1.000,1.000,-12.02,102.02,0.00,CLOSED,0
5782.769,0,1,1,1.000,1.000,1.000,-9.00,99.00,0.00,CLOSED,0
5782.818,0,1,1,1.000,1.000,1.000,-6.02,96.02,0.00,CLOSED,1
5782.868,0,1,1,1.000,1.000,1.000,-3.01,93.01,0.00,CLOSED,0
5782.919,0,1,1,1.000,1.000,1.000,0.00,90.00,0.00,CLOSED,1
5782.971,0,1,1,1.000,1.000,1.000,0.00,90.00,0.00,CLOSED,0
5783.018,0,1,1,1.000,1.000,1.000,0.00,90.00,0.00,CLOSED,0
5783.068,0,1,1,1.000,1.000,1.000,0.00,90.00,0.00,CLOSED,0
5783.118,0,1,1,1.000,1.000,1.000,0.00,90.00,0.00,CLOSED,0
5783.169,0,1,1,1.000,1.000,1.000,0.00,90.00,0.00,CLOSED,0
5783.218,0,1,1,1.000,1.000,1.000,0.00,90.00,0.00,CLOSED,0
5783.269,0,1,1,1.000,1.000,1.000,0.00,90.00,0.00,CLOSED,0
5783.318,0,1,1,1.000,1.000,1.000,0.00,90.00,0.00,CLOSED,0
5783.369,0,1,1,1.000,1.000,1.000,0.00,90.00,0.00,CLOSED,0
5783.418,0,1,1,1.000,1.000,1.000,0.00,90.00,0.00,CLOSED,0
5783.470,0,1,1,1.000,1.000,1.000,0.00,90.00,0.00,CLOSED,0
5783.518,0,1,1,1.000,1.000,1.000,0.00,90.00,0.00,CLOSED,0
5783.568,0,1,1,1.000,1.000,1.000,0.00,90.00,0.00,CLOSED,0
5783.618,0,1,1,1.000,1.000,1.000,0.00,90.00,0.00,CLOSED,0
5783.669,0,1,1,1.000,1.000,1.000,0.00,90.00,0.00,CLOSED,0
5783.719,0,1,1,1.000,1.000,1.000,0.00,90.00,0.00,CLOSED,0
5783.769,0,1,1,1.000,1.000,1.000,0.00,90.00,0.00,CLOSED,0
5783.819,0,1,1,1.000,1.000,1.000,0.00,90.00,0.00,CLOSED,0
5783.868,0,1,1,1.000,1.000,1.000,0.00,90.00,0.00,CLOSED,0
5783.919,0,1,1,1.000,1.000,1.000,0.00,90.00,0.00,CLOSED,0
5783.970,0,1,1,1.000,1.000,1.000,0.00,90.00,0.00,CLOSED,0
5784.020,0,1,1,1.000,1.000,1.000,0.00,90.00,0.00,CLOSED,0
5784.068,0,1,1,1.000,1.000,1.000,0.00,90.00,0.00,CLOSED,0
5784.119,0,1,1,1.000,1.000,1.000,0.00,90.00,0.00,CLOSED,0
5784.168,0,1,1,0.999,1.000,1.000,0.00,90.00,0.00,CLOSED,0
5784.218,0,1,1,0.910,1.000,1.000,0.00,90.00,0.00,CLOSED,0
5784.269,0,1,1,0.562,1.000,1.000,0.00,90.00,0.00,CLOSED,0
5784.319,0,1,1,1.000,1.000,1.000,0.00,90.00,0.00,CLOSED,0
5784.369,0,1,1,1.000,1.000,1.000,0.00,90.00,0.00,CLOSED,0
5784.418,0,1,1,1.000,1.000,1.000,0.00,90.00,0.00,CLOSED,0
5784.468,0,1,1,1.000,1.000,1.000,0.00,90.00,0.00,CLOSED,0
5784.518,0,1,1,1.000,1.000,1.000,0.00,90.00,0.00,CLOSED,0
5784.570,0,1,1,1.000,1.000,1.000,0.00,90.00,0.00,CLOSED,0
5784.617,0,1,1,1.000,1.000,1.000,0.00,90.00,0.00,CLOSED,0
5784.668,3,1,1,1.000,1.000,1.000,0.00,90.00,0.00,OPEN,0
5784.720,3,1,1,1.000,1.000,1.000,0.00,90.00,0.00,OPEN,0
5784.769,3,1,1,1.000,1.000,1.000,0.00,90.00,0.00,OPEN,0
5784.818,3,1,1,1.000,1.000,1.000,0.00,90.00,0.00,OPEN,0
5784.869,3,1,1,1.000,1.000,1.000,0.00,90.00,0.00,OPEN,0
5784.919,3,1,1,1.000,1.000,1.000,0.00,90.00,0.00,OPEN,0
5784.969,3,1,1,1.000,1.000,1.000,0.00,90.00,0.00,OPEN,0
5785.019,3,1,1,1.000,1.000,1.000,0.00,90.00,0.00,OPEN,0
5785.082,3,1,1,1.000,1.000,1.000,0.00,90.00,0.00,OPEN,0
5785.121,3,1,1,1.000,1.000,1.000,0.00,90.00,0.00,OPEN,0
5785.168,3,1,1,1.000,1.000,1.000,0.00,90.00,0.00,OPEN,0
5785.218,3,1,1,1.000,1.000,1.000,0.00,90.00,0.00,OPEN,0
5785.268,3,1,1,1.000,1.000,1.000,0.00,90.00,0.00,OPEN,0
5785.319,3,1,1,1.000,1.000,1.000,0.00,90.00,0.00,OPEN,0
5785.369,3,1,1,1.000,1.000,1.000,0.00,90.00,0.00,OPEN,0
5785.419,3,1,1,1.000,1.000,1.000,0.00,90.00,0.00,OPEN,0
5785.468,3,1,1,1.000,1.000,1.000,0.00,90.00,0.00,OPEN,0
5785.519,3,1,1,1.000,1.000,1.000,0.00,90.00,0.00,OPEN,0
5785.569,3,1,1,0.997,1.000,1.000,0.00,90.00,0.00,OPEN,0
5785.620,3,1,1,0.972,1.000,1.000,0.00,90.00,0.00,OPEN,0
5785.669,3,1,1,0.798,1.000,1.000,0.00,90.00,0.00,OPEN,0
5785.718,3,1,1,0.619,1.000,1.000,0.00,90.00,0.00,OPEN,0
5785.769,3,1,1,0.905,1.000,1.000,0.00,90.00,0.00,OPEN,0
5785.818,3,1,1,0.973,1.000,1.000,0.00,90.00,0.00,OPEN,0
5785.869,3,1,1,0.988,1.000,1.000,0.00,90.00,0.00,OPEN,0
5785.918,3,1,1,0.978,1.000,1.000,0.00,90.00,0.00,OPEN,0
5785.968,3,1,1,0.937,1.000,1.000,0.00,90.00,0.00,OPEN,0
5786.019,3,1,1,1.000,1.000,1.000,0.00,90.00,0.00,OPEN,0
5786.069,3,1,1,1.000,1.000,1.000,0.00,90.00,0.00,OPEN,0
5786.118,3,1,1,1.000,1.000,1.000,0.00,90.00,0.00,OPEN,0
5786.172,3,1,1,1.000,1.000,1.000,0.00,90.00,0.00,OPEN,0
5786.218,3,1,1,1.000,1.000,1.000,0.00,90.00,0.00,OPEN,0
5786.269,3,1,1,1.000,1.000,1.000,0.00,90.00,0.00,OPEN,0
5786.319,3,1,1,1.000,1.000,1.000,0.00,90.00,0.00,OPEN,0
5786.368,0,1,1,1.000,1.000,1.000,0.00,90.00,0.00,OPEN,0
5786.419,0,1,1,1.000,1.000,1.000,0.00,90.00,0.00,OPEN,0
5786.468,0,1,1,1.000,1.000,1.000,0.00,90.00,0.00,OPEN,0
5786.518,0,1,1,1.000,1.000,1.000,0.00,90.00,0.00,OPEN,0
5786.569,0,1,1,1.000,1.000,1.000,0.00,90.00,0.00,OPEN,0
5786.619,0,1,1,1.000,1.000,1.000,0.00,90.00,0.00,OPEN,0
5786.670,0,1,1,1.000,1.000,1.000,0.00,90.00,0.00,OPEN,0
5786.718,0,1,1,1.000,1.000,1.000,0.00,90.00,0.00,OPEN,0
5786.768,0,1,1,1.000,1.000,1.000,0.00,90.00,0.00,OPEN,0
5786.818,0,1,1,1.000,1.000,1.000,0.00,90.00,0.00,OPEN,0
5786.868,0,1,1,1.000,1.000,1.000,0.00,90.00,0.00,OPEN,0
5786.919,0,1,1,1.000,1.000,1.000,0.00,90.00,0.00,OPEN,0
5786.968,0,1,1,1.000,1.000,1.000,0.00,90.00,0.00,OPEN,0
5787.018,0,1,1,0.810,1.000,1.000,0.00,90.00,0.00,OPEN,0
5787.069,0,1,1,0.955,1.000,1.000,0.00,90.00,0.00,OPEN,0
5787.118,0,1,1,0.999,1.000,1.000,0.00,90.00,0.00,OPEN,0
5787.169,0,1,1,0.999,1.000,1.000,0.00,90.00,0.00,OPEN,0
5787.221,0,1,1,1.000,1.000,1.000,0.00,90.00,0.00,OPEN,0
5787.268,0,1,1,1.000,1.000,1.000,0.00,90.00,0.00,OPEN,0
5787.318,0,1,1,1.000,1.000,1.000,0.00,90.00,0.00,OPEN,0
5787.369,0,1,1,1.000,1.000,1.000,0.00,90.00,0.00,OPEN,0
5787.419,2,1,1,1.000,1.000,1.000,0.00,90.00,-4.50,OPEN,1
5787.508,2,1,1,0.999,1.000,1.000,0.00,90.00,-4.50,OPEN,0
5787.522,2,1,1,0.999,1.000,1.000,0.00,90.00,-9.00,OPEN,1
5787.569,2,1,1,1.000,1.000,1.000,0.00,90.00,-9.00,OPEN,0
5787.618,2,1,1,1.000,1.000,1.000,0.00,90.00,-9.00,OPEN,0
5787.669,2,1,1,1.000,1.000,1.000,0.00,90.00,-13.50,OPEN,1
5787.721,2,1,1,1.000,1.000,1.000,0.00,90.00,-13.50,OPEN,0
5787.770,2,1,1,1.000,1.000,1.000,0.00,90.00,-18.00,OPEN,1
5787.908,2,1,1,1.000,1.000,1.000,0.00,90.00,-22.50,OPEN,1
5787.948,2,1,1,1.000,1.000,1.000,0.00,90.00,-22.50,OPEN,0
5787.957,2,1,1,1.000,1.000,1.000,0.00,90.00,-22.50,OPEN,0
5787.968,2,1,1,1.000,1.000,1.000,0.00,90.00,-22.50,OPEN,0
5788.018,2,1,1,1.000,1.000,1.000,0.00,90.00,-27.00,OPEN,1
5788.108,2,1,1,1.000,1.000,1.000,0.00,90.00,-27.00,OPEN,0
5788.121,2,1,1,1.000,1.000,1.000,0.00,90.00,-31.50,OPEN,1
5788.168,2,1,1,1.000,1.000,1.000,0.00,90.00,-31.50,OPEN,0
5788.218,2,1,1,1.000,1.000,1.000,0.00,90.00,-31.50,OPEN,0
5788.271,2,1,1,1.000,1.000,1.000,0.00,90.00,-36.00,OPEN,1
5788.320,2,1,1,1.000,1.000,1.000,0.00,90.00,-36.00,OPEN,0
5788.369,2,1,1,1.000,1.000,1.000,0.00,90.00,-36.00,OPEN,0
5788.419,2,1,1,1.000,1.000,1.000,0.00,90.00,-40.50,OPEN,1
5788.486,2,1,1,1.000,1.000,1.000,0.00,90.00,-40.50,OPEN,0
5788.519,2,1,1,1.000,1.000,1.000,0.00,90.00,-45.00,OPEN,1
5788.571,2,1,1,1.000,1.000,1.000,0.00,90.00,-45.00,OPEN,0
5788.618,2,1,1,1.000,1.000,1.000,0.00,90.00,-45.00,OPEN,0
5788.668,2,1,1,1.000,1.000,1.000,0.00,90.00,-49.50,OPEN,1
5788.720,2,1,1,1.000,1.000,1.000,0.00,90.00,-49.50,OPEN,0
5788.769,2,1,1,1.000,1.000,1.000,0.00,90.00,-54.00,OPEN,1
5788.907,2,1,1,1.000,1.000,1.000,0.00,90.00,-58.50,OPEN,1
5788.954,2,1,1,1.000,1.000,1.000,0.00,90.00,-58.50,OPEN,0
5788.966,2,1,1,1.000,1.000,1.000,0.00,90.00,-58.50,OPEN,0
5788.973,2,1,1,1.000,1.000,1.000,0.00,90.00,-58.50,OPEN,0
5789.019,2,1,1,1.000,1.000,1.000,0.00,90.00,-63.00,OPEN,1
5789.108,2,1,1,1.000,1.000,1.000,0.00,90.00,-63.00,OPEN,0
5789.121,2,1,1,0.999,1.000,1.000,0.00,90.00,-67.50,OPEN,1
5789.169,2,1,1,0.894,1.000,1.000,0.00,90.00,-67.50,OPEN,0
5789.218,2,1,1,0.879,1.000,1.000,0.00,90.00,-67.50,OPEN,0
5789.268,2,1,1,0.988,1.000,1.000,0.00,90.00,-72.00,OPEN,1
5789.320,2,1,1,0.996,1.000,1.000,0.00,90.00,-72.00,OPEN,0
5789.371,2,1,1,0.998,1.000,1.000,0.00,90.00,-76.50,OPEN,1
5789.507,2,1,1,0.999,1.000,1.000,0.00,90.00,-81.00,OPEN,1
5789.552,2,1,1,0.999,1.000,1.000,0.00,90.00,-81.00,OPEN,0
5789.557,2,1,1,0.998,1.000,1.000,0.00,90.00,-81.00,OPEN,0
5789.569,2,1,1,0.993,1.000,1.000,0.00,90.00,-81.00,OPEN,0
5789.618,3,1,1,0.921,1.000,1.000,0.00,90.00,-81.00,CLOSED,0
5789.758,3,1,1,0.636,1.000,1.000,0.00,90.00,-81.00,CLOSED,0
5789.764,3,1,1,0.954,1.000,1.000,0.00,90.00,-81.00,CLOSED,0
5789.771,3,1,1,0.981,1.000,1.000,0.00,90.00,-81.00,CLOSED,0
5789.818,3,1,1,0.967,1.000,1.000,0.00,90.00,-81.00,CLOSED,0
5789.870,3,1,1,0.965,1.000,1.000,0.00,90.00,-81.00,CLOSED,0
5789.919,3,1,1,0.948,1.000,1.000,0.00,90.00,-81.00,CLOSED,0
5789.969,3,1,1,0.895,1.000,1.000,0.00,90.00,-81.00,CLOSED,0
5790.019,3,1,1,0.847,1.000,1.000,0.00,90.00,-81.00,CLOSED,0
5790.068,0,1,1,0.819,1.000,1.000,0.00,90.00,-81.00,CLOSED,0
5790.119,0,1,1,0.809,1.000,1.000,0.00,90.00,-81.00,CLOSED,0
5790.169,0,1,1,0.819,1.000,1.000,0.00,90.00,-81.00,CLOSED,0
5790.219,0,1,1,0.994,1.000,1.000,0.00,90.00,-81.00,CLOSED,0
5790.269,0,1,1,1.000,1.000,1.000,0.00,90.00,-81.00,CLOSED,0
5790.318,0,1,1,1.000,1.000,1.000,0.00,90.00,-81.00,CLOSED,0
5790.369,0,1,1,1.000,1.000,1.000,0.00,90.00,-81.00,CLOSED,0
5790.420,0,1,1,1.000,1.000,1.000,0.00,90.00,-81.00,CLOSED,0
5790.468,0,1,1,1.000,1.000,1.000,0.00,90.00,-81.00,CLOSED,0
5790.519,0,1,1,1.000,1.000,1.000,0.00,90.00,-81.00,CLOSED,0
5790.569,0,1,1,1.000,1.000,1.000,0.00,90.00,-81.00,CLOSED,0
5790.619,0,1,1,1.000,1.000,1.000,0.00,90.00,-81.00,CLOSED,0
5790.669,0,1,1,1.000,1.000,1.000,0.00,90.00,-81.00,CLOSED,0
5790.719,0,1,1,1.000,1.000,1.000,0.00,90.00,-81.00,CLOSED,0
5790.769,0,1,1,1.000,1.000,1.000,0.00,90.00,-81.00,CLOSED,0
5790.819,0,1,1,1.000,1.000,1.000,0.00,90.00,-81.00,CLOSED,0
5790.869,0,1,1,1.000,1.000,1.000,0.00,90.00,-81.00,CLOSED,0
5790.918,0,1,1,1.000,1.000,1.000,0.00,90.00,-81.00,CLOSED,0
5790.971,0,1,1,0.950,1.000,1.000,0.00,90.00,-81.00,CLOSED,0
5791.018,0,1,1,0.999,1.000,1.000,0.00,90.00,-81.00,CLOSED,0
5791.069,0,1,1,0.760,1.000,1.000,0.00,90.00,-81.00,CLOSED,0
5791.119,0,1,1,0.775,1.000,1.000,0.00,90.00,-81.00,CLOSED,0
5791.168,0,1,1,0.838,1.000,1.000,0.00,90.00,-81.00,CLOSED,0
5791.219,0,1,1,0.677,1.000,1.000,0.00,90.00,-81.00,CLOSED,0
5791.268,0,1,1,0.748,1.000,1.000,0.00,90.00,-81.00,CLOSED,0
5791.319,0,1,1,0.831,1.000,1.000,0.00,90.00,-81.00,CLOSED,0
5791.368,0,1,1,0.802,1.000,1.000,0.00,90.00,-81.00,CLOSED,0
5791.419,0,1,1,0.764,1.000,1.000,0.00,90.00,-81.00,CLOSED,0
5791.469,0,1,1,0.613,1.000,1.000,0.00,90.00,-81.00,CLOSED,0
5791.520,0,1,1,0.468,1.000,1.000,0.00,90.00,-81.00,CLOSED,0
5791.569,0,1,1,0.505,1.000,1.000,0.00,90.00,-81.00,CLOSED,0
5791.618,0,1,1,0.455,1.000,1.000,0.00,90.00,-81.00,CLOSED,0
5791.669,0,1,1,0.461,1.000,1.000,0.00,90.00,-81.00,CLOSED,0
5791.718,0,1,1,0.449,1.000,1.000,0.00,90.00,-81.00,CLOSED,0
5791.768,0,1,1,0.789,1.000,1.000,0.00,90.00,-81.00,CLOSED,0
5791.819,0,1,1,0.947,1.000,1.000,0.00,90.00,-81.00,CLOSED,0
5791.869,0,1,1,0.874,1.000,1.000,0.00,90.00,-81.00,CLOSED,0
5791.919,0,1,1,0.749,1.000,1.000,0.00,90.00,-81.00,CLOSED,0
5791.969,0,1,1,0.838,1.000,1.000,0.00,90.00,-81.00,CLOSED,0
5792.021,0,1,1,0.897,1.000,1.000,0.00,90.00,-81.00,CLOSED,0
5792.068,0,1,1,0.896,1.000,1.000,0.00,90.00,-81.00,CLOSED,0
5792.118,0,1,1,0.899,1.000,1.000,0.00,90.00,-81.00,CLOSED,0
5792.169,0,1,1,0.901,1.000,1.000,0.00,90.00,-81.00,CLOSED,0
5792.218,0,1,1,0.940,1.000,1.000,0.00,90.00,-81.00,CLOSED,0
5792.269,0,1,1,0.924,1.000,1.000,0.00,90.00,-81.00,CLOSED,0
5792.318,0,1,1,0.881,1.000,1.000,0.00,90.00,-81.00,CLOSED,0
5792.369,0,1,1,0.850,1.000,1.000,0.00,90.00,-81.00,CLOSED,0
5792.419,0,1,1,0.839,1.000,1.000,0.00,90.00,-81.00,CLOSED,0
5792.468,0,1,1,0.701,1.000,1.000,0.00,90.00,-81.00,CLOSED,0
5792.519,0,1,1,0.588,1.000,1.000,0.00,90.00,-81.00,CLOSED,0
5792.570,0,1,1,0.580,1.000,1.000,0.00,90.00,-81.00,CLOSED,0
5792.619,0,1,1,0.524,1.000,1.000,0.00,90.00,-81.00,CLOSED,0
5792.669,0,1,1,0.509,1.000,1.000,0.00,90.00,-81.00,CLOSED,0
5792.719,0,1,1,0.517,1.000,1.000,0.00,90.00,-81.00,CLOSED,0
5792.769,0,1,1,0.541,1.000,1.000,0.00,90.00,-81.00,CLOSED,0
5792.818,0,1,1,0.605,1.000,1.000,0.00,90.00,-81.00,CLOSED,0
5792.869,0,1,1,0.666,1.000,1.000,0.00,90.00,-81.00,CLOSED,0
5792.919,0,1,1,0.717,1.000,1.000,0.00,90.00,-81.00,CLOSED,0
5792.969,0,1,1,0.763,1.000,1.000,0.00,90.00,-81.00,CLOSED,0
5793.019,0,1,1,0.718,1.000,1.000,0.00,90.00,-81.00,CLOSED,0
5793.070,0,1,1,0.900,1.000,1.000,0.00,90.00,-81.00,CLOSED,0
5793.118,0,1,1,0.992,1.000,1.000,0.00,90.00,-81.00,CLOSED,0
5793.169,0,1,1,0.998,1.000,1.000,0.00,90.00,-81.00,CLOSED,0
5793.219,0,1,1,0.999,1.000,1.000,0.00,90.00,-81.00,CLOSED,0
5793.269,0,1,1,1.000,1.000,1.000,0.00,90.00,-81.00,CLOSED,0
5793.320,0,1,1,1.000,1.000,1.000,0.00,90.00,-81.00,CLOSED,0
5793.369,0,1,1,1.000,1.000,1.000,0.00,90.00,-81.00,CLOSED,0
5793.418,3,1,1,1.000,1.000,1.000,0.00,90.00,-81.00,OPEN,0
5793.470,3,1,1,1.000,1.000,1.000,0.00,90.00,-81.00,OPEN,0
5793.518,3,1,1,1.000,1.000,1.000,0.00,90.00,-81.00,OPEN,0
5793.570,3,1,1,1.000,1.000,1.000,0.00,90.00,-81.00,OPEN,0
5793.620,3,1,1,1.000,1.000,1.000,0.00,90.00,-81.00,OPEN,0
5793.669,3,1,1,1.000,1.000,1.000,0.00,90.00,-81.00,OPEN,0
5793.719,3,1,1,1.000,1.000,1.000,0.00,90.00,-81.00,OPEN,0
5793.768,3,1,1,0.998,1.000,1.000,0.00,90.00,-81.00,OPEN,0
5793.819,3,1,1,0.975,1.000,1.000,0.00,90.00,-81.00,OPEN,0
5793.869,3,1,1,0.697,1.000,1.000,0.00,90.00,-81.00,OPEN,0
5793.919,3,1,1,0.519,1.000,1.000,0.00,90.00,-81.00,OPEN,0
5793.970,3,1,1,0.985,1.000,1.000,0.00,90.00,-81.00,OPEN,0
5794.018,3,1,1,0.993,1.000,1.000,0.00,90.00,-81.00,OPEN,0
5794.069,3,1,1,0.999,1.000,1.000,0.00,90.00,-81.00,OPEN,0
5794.119,3,1,1,1.000,1.000,1.000,0.00,90.00,-81.00,OPEN,0
5794.170,3,1,1,1.000,1.000,1.000,0.00,90.00,-81.00,OPEN,0
5794.218,3,1,1,1.000,1.000,1.000,0.00,90.00,-81.00,OPEN,0
5794.270,3,1,1,1.000,1.000,1.000,0.00,90.00,-81.00,OPEN,0
5794.319,0,1,1,1.000,1.000,1.000,0.00,90.00,-81.00,OPEN,0
5794.369,0,1,1,1.000,1.000,1.000,0.00,90.00,-81.00,OPEN,0
5794.419,0,1,1,1.000,1.000,1.000,0.00,90.00,-81.00,OPEN,0
5794.468,0,1,1,0.997,1.000,1.000,0.00,90.00,-81.00,OPEN,0
5794.519,0,1,1,0.918,1.000,1.000,0.00,90.00,-81.00,OPEN,0
5794.568,0,1,1,0.532,1.000,1.000,0.00,90.00,-81.00,OPEN,0
5794.618,0,1,1,0.408,1.000,1.000,0.00,90.00,-81.00,OPEN,0
5794.670,0,1,1,0.642,1.000,1.000,0.00,90.00,-81.00,OPEN,0
5794.719,0,1,1,0.944,1.000,1.000,0.00,90.00,-81.00,OPEN,0
5794.768,0,1,1,0.868,1.000,1.000,0.00,90.00,-81.00,OPEN,0
5794.821,0,1,1,0.918,1.000,1.000,0.00,90.00,-81.00,OPEN,0
5794.870,0,1,1,0.977,1.000,1.000,0.00,90.00,-81.00,OPEN,0
5794.921,0,1,1,0.954,1.000,1.000,0.00,90.00,-81.00,OPEN,0
5794.968,0,1,1,0.928,1.000,1.000,0.00,90.00,-81.00,OPEN,0
5795.018,0,1,1,0.957,1.000,1.000,0.00,90.00,-81.00,OPEN,0
5795.070,0,1,1,0.983,1.000,1.000,0.00,90.00,-81.00,OPEN,0
5795.119,0,1,1,0.985,1.000,1.000,0.00,90.00,-81.00,OPEN,0
5795.170,0,1,1,0.994,1.000,1.000,0.00,90.00,-81.00,OPEN,0
5795.220,0,1,1,0.997,1.000,1.000,0.00,90.00,-81.00,OPEN,0
5795.268,0,1,1,0.998,1.000,1.000,0.00,90.00,-81.00,OPEN,0
5795.319,0,1,1,1.000,1.000,1.000,0.00,90.00,-81.00,OPEN,0
5795.368,0,1,1,1.000,1.000,1.000,0.00,90.00,-81.00,OPEN,0
5795.419,0,1,1,1.000,1.000,1.000,0.00,90.00,-81.00,OPEN,0
5795.470,0,1,1,1.000,1.000,1.000,0.00,90.00,-81.00,OPEN,0
5795.519,0,1,1,1.000,1.000,1.000,0.00,90.00,-81.00,OPEN,0
5795.569,0,1,1,1.000,1.000,1.000,0.00,90.00,-81.00,OPEN,0
5795.619,0,1,1,1.000,1.000,1.000,0.00,90.00,-81.00,OPEN,0
5795.669,0,1,1,1.000,1.000,1.000,0.00,90.00,-81.00,OPEN,0
5795.719,0,1,1,1.000,1.000,1.000,0.00,90.00,-81.00,OPEN,0
5795.770,0,1,1,1.000,1.000,1.000,0.00,90.00,-81.00,OPEN,0
5795.819,0,1,1,1.000,1.000,1.000,0.00,90.00,-81.00,OPEN,0
5795.868,0,1,1,1.000,1.000,1.000,0.00,90.00,-81.00,OPEN,0
5795.919,0,1,1,1.000,1.000,1.000,0.00,90.00,-81.00,OPEN,0
5795.970,0,1,1,1.000,1.000,1.000,0.00,90.00,-81.00,OPEN,0
5796.019,0,1,1,0.989,1.000,1.000,0.00,90.00,-81.00,OPEN,0
5796.069,0,1,1,0.695,1.000,1.000,0.00,90.00,-81.00,OPEN,0
5796.120,0,1,1,0.933,1.000,1.000,0.00,90.00,-81.00,OPEN,0
5796.169,0,1,1,0.650,1.000,1.000,0.00,90.00,-81.00,OPEN,0
5796.220,0,1,1,0.773,1.000,1.000,0.00,90.00,-81.00,OPEN,0
5796.271,0,1,1,0.511,1.000,1.000,0.00,90.00,-81.00,OPEN,0
5796.319,0,1,1,0.657,1.000,1.000,0.00,90.00,-81.00,OPEN,0
5796.369,0,1,1,0.898,1.000,1.000,0.00,90.00,-81.00,OPEN,0
5796.419,0,1,1,0.954,1.000,1.000,0.00,90.00,-81.00,OPEN,0
5796.469,0,1,1,0.979,1.000,1.000,0.00,90.00,-81.00,OPEN,0
5796.518,0,1,1,0.979,1.000,1.000,0.00,90.00,-81.00,OPEN,0
5796.569,0,1,1,0.977,1.000,1.000,0.00,90.00,-81.00,OPEN,0
5796.620,0,1,1,0.974,1.000,1.000,0.00,90.00,-81.00,OPEN,0
5796.669,0,1,1,0.975,1.000,1.000,0.00,90.00,-81.00,OPEN,0
5796.718,3,1,1,0.966,1.000,1.000,0.00,90.00,-81.00,CLOSED,0
5796.783,3,1,1,0.950,1.000,1.000,0.00,90.00,-81.00,CLOSED,0
5796.820,3,1,1,0.923,1.000,1.000,0.00,90.00,-81.00,CLOSED,0
5796.869,3,1,1,0.880,1.000,1.000,0.00,90.00,-81.00,CLOSED,0
5796.918,3,1,1,0.835,1.000,1.000,0.00,90.00,-81.00,CLOSED,0
5796.968,3,1,1,0.928,1.000,1.000,0.00,90.00,-81.00,CLOSED,0
5797.019,3,1,1,0.919,1.000,1.000,0.00,90.00,-81.00,CLOSED,0
5797.069,3,1,1,0.943,1.000,1.000,0.00,90.00,-81.00,CLOSED,0
5797.118,3,1,1,0.983,1.000,1.000,0.00,90.00,-81.00,CLOSED,0
5797.168,3,1,1,0.991,1.000,1.000,0.00,90.00,-81.00,CLOSED,0
5797.219,3,1,1,0.996,1.000,1.000,0.00,90.00,-81.00,CLOSED,0
5797.270,3,1,1,0.996,1.000,1.000,0.00,90.00,-81.00,CLOSED,0
5797.318,3,1,1,0.998,1.000,1.000,0.00,90.00,-81.00,CLOSED,0
5797.370,3,1,1,0.997,1.000,1.000,0.00,90.00,-81.00,CLOSED,0
5797.418,3,1,1,0.998,1.000,1.000,0.00,90.00,-81.00,CLOSED,0
5797.469,3,1,1,0.998,1.000,1.000,0.00,90.00,-81.00,CLOSED,0
5797.518,3,1,1,0.999,1.000,1.000,0.00,90.00,-81.00,CLOSED,0
5797.569,3,1,1,0.999,1.000,1.000,0.00,90.00,-81.00,CLOSED,0
5797.619,3,1,1,0.999,1.000,1.000,0.00,90.00,-81.00,CLOSED,0
5797.670,3,1,1,0.999,1.000,1.000,0.00,90.00,-81.00,CLOSED,0
5797.719,3,1,1,1.000,1.000,1.000,0.00,90.00,-81.00,CLOSED,0
5797.769,3,1,1,1.000,1.000,1.000,0.00,90.00,-81.00,CLOSED,0
5797.819,3,1,1,0.999,1.000,1.000,0.00,90.00,-81.00,CLOSED,0
5797.870,3,1,1,0.999,1.000,1.000,0.00,90.00,-81.00,CLOSED,0
5797.919,3,1,1,0.999,1.000,1.000,0.00,90.00,-81.00,CLOSED,0
5797.969,3,1,1,0.998,1.000,1.000,0.00,90.00,-81.00,CLOSED,0
5798.020,3,1,1,0.997,1.000,1.000,0.00,90.00,-81.00,CLOSED,0
5798.068,3,1,1,0.996,1.000,1.000,0.00,90.00,-81.00,CLOSED,0
5798.119,3,1,1,0.996,1.000,1.000,0.00,90.00,-81.00,CLOSED,0
5798.170,3,1,1,0.997,1.000,1.000,0.00,90.00,-81.00,CLOSED,0
5798.219,3,1,1,0.996,1.000,1.000,0.00,90.00,-81.00,CLOSED,0
5798.269,3,1,1,0.996,1.000,1.000,0.00,90.00,-81.00,CLOSED,0
5798.319,3,1,1,0.996,1.000,1.000,0.00,90.00,-81.00,CLOSED,0
5798.369,3,1,1,0.997,1.000,1.000,0.00,90.00,-81.00,CLOSED,0
5798.421,3,1,1,0.996,1.000,1.000,0.00,90.00,-81.00,CLOSED,0
5798.469,3,1,1,0.978,1.000,0.999,0.00,90.00,-81.00,CLOSED,0
5798.520,3,1,1,0.978,1.000,0.998,0.00,90.00,-81.00,CLOSED,0
5798.568,3,1,1,0.894,1.000,0.998,0.00,90.00,-81.00,CLOSED,0
5798.619,3,1,1,0.712,1.000,0.998,0.00,90.00,-81.00,CLOSED,0
5798.669,3,1,1,0.597,1.000,0.998,0.00,90.00,-81.00,CLOSED,0
5798.719,3,1,1,0.682,1.000,0.999,0.00,90.00,-81.00,CLOSED,0
5798.769,3,1,1,0.754,1.000,0.999,0.00,90.00,-81.00,CLOSED,0
5798.819,3,1,1,0.735,1.000,1.000,0.00,90.00,-81.00,CLOSED,0
5798.870,3,1,1,0.882,1.000,1.000,0.00,90.00,-81.00,CLOSED,0
5798.920,3,1,1,0.998,1.000,1.000,0.00,90.00,-81.00,CLOSED,0
5798.972,3,1,1,1.000,1.000,1.000,0.00,90.00,-81.00,CLOSED,0
5799.019,3,1,1,1.000,1.000,1.000,0.00,90.00,-81.00,CLOSED,0
5799.070,3,1,1,1.000,1.000,1.000,0.00,90.00,-81.00,CLOSED,0
5799.118,3,1,1,1.000,1.000,1.000,0.00,90.00,-81.00,CLOSED,0
5799.168,3,1,1,1.000,1.000,1.000,0.00,90.00,-81.00,CLOSED,0
5799.219,0,1,1,1.000,1.000,1.000,0.00,90.00,-81.00,CLOSED,0
5799.268,0,1,1,1.000,1.000,1.000,0.00,90.00,-81.00,CLOSED,0
5799.319,0,1,1,1.000,1.000,1.000,0.00,90.00,-81.00,CLOSED,0
5799.370,0,1,1,1.000,1.000,1.000,0.00,90.00,-81.00,CLOSED,0
5799.419,0,1,1,1.000,1.000,1.000,0.00,90.00,-81.00,CLOSED,0
5799.470,0,1,1,1.000,1.000,1.000,0.00,90.00,-81.00,CLOSED,0
5799.520,0,1,1,1.000,1.000,1.000,0.00,90.00,-81.00,CLOSED,0
5799.569,0,1,1,1.000,1.000,1.000,0.00,90.00,-81.00,CLOSED,0
5799.618,0,1,1,1.000,1.000,1.000,0.00,90.00,-81.00,CLOSED,0
5799.669,0,1,1,1.000,1.000,1.000,0.00,90.00,-81.00,CLOSED,0
5799.721,0,1,1,1.000,1.000,1.000,0.00,90.00,-81.00,CLOSED,0
5799.769,0,1,1,1.000,1.000,1.000,0.00,90.00,-81.00,CLOSED,0
5799.818,0,1,1,1.000,1.000,1.000,0.00,90.00,-81.00,CLOSED,0
5799.868,0,1,1,1.000,1.000,1.000,0.00,90.00,-81.00,CLOSED,0
5799.918,0,1,1,1.000,1.000,1.000,0.00,90.00,-81.00,CLOSED,0
5799.973,0,1,1,1.000,1.000,1.000,0.00,90.00,-81.00,CLOSED,0
5800.020,0,1,1,1.000,1.000,1.000,0.00,90.00,-81.00,CLOSED,0
5800.070,0,1,1,1.000,1.000,1.000,0.00,90.00,-81.00,CLOSED,0
5800.120,0,1,1,1.000,1.000,1.000,0.00,90.00,-81.00,CLOSED,0
5800.171,0,1,1,1.000,1.000,1.000,0.00,90.00,-81.00,CLOSED,0
5800.218,0,1,1,1.000,1.000,1.000,0.00,90.00,-81.00,CLOSED,0
5800.269,0,1,1,1.000,1.000,1.000,0.00,90.00,-81.00,CLOSED,0
5800.320,0,1,1,1.000,1.000,1.000,0.00,90.00,-81.00,CLOSED,0
5800.370,0,1,1,1.000,1.000,1.000,0.00,90.00,-81.00,CLOSED,0
5800.419,0,1,1,1.000,1.000,1.000,0.00,90.00,-81.00,CLOSED,0
5800.469,0,1,1,1.000,1.000,1.000,0.00,90.00,-81.00,CLOSED,0
5800.521,0,1,1,1.000,1.000,1.000,0.00,90.00,-81.00,CLOSED,0
5800.571,0,1,1,1.000,1.000,1.000,0.00,90.00,-81.00,CLOSED,0
5800.619,0,1,1,1.000,1.000,1.000,0.00,90.00,-81.00,CLOSED,0
5800.667,0,1,1,1.000,1.000,1.000,0.00,90.00,-81.00,CLOSED,0
5800.719,0,1,1,1.000,1.000,1.000,0.00,90.00,-81.00,CLOSED,0
5800.769,0,1,1,1.000,1.000,1.000,0.00,90.00,-81.00,CLOSED,0
5800.820,0,1,1,1.000,1.000,1.000,0.00,90.00,-81.00,CLOSED,0
5800.869,0,1,1,0.490,1.000,1.000,0.00,90.00,-81.00,CLOSED,0
5800.918,0,1,1,0.978,1.000,1.000,0.00,90.00,-81.00,CLOSED,0
5800.971,0,1,1,0.999,1.000,1.000,0.00,90.00,-81.00,CLOSED,0
5801.019,0,1,1,0.984,1.000,1.000,0.00,90.00,-81.00,CLOSED,0
5801.071,0,1,1,0.728,1.000,1.000,0.00,90.00,-81.00,CLOSED,0
5801.119,0,1,1,0.998,1.000,1.000,0.00,90.00,-81.00,CLOSED,0
5801.170,0,1,1,1.000,1.000,1.000,0.00,90.00,-81.00,CLOSED,0
5801.219,0,1,1,1.000,1.000,1.000,0.00,90.00,-81.00,CLOSED,0
5801.268,0,1,1,1.000,1.000,1.000,0.00,90.00,-81.00,CLOSED,0
5801.318,0,1,1,1.000,1.000,1.000,0.00,90.00,-81.00,CLOSED,0
5801.370,0,1,1,1.000,1.000,1.000,0.00,90.00,-81.00,CLOSED,0
5801.419,0,1,1,1.000,1.000,1.000,0.00,90.00,-81.00,CLOSED,0
5801.468,3,1,1,1.000,1.000,1.000,0.00,90.00,-81.00,OPEN,0
5801.563,3,1,1,1.000,1.000,1.000,0.00,90.00,-81.00,OPEN,0
5801.575,3,1,1,1.000,1.000,1.000,0.00,90.00,-81.00,OPEN,0
5801.621,3,1,1,1.000,1.000,1.000,0.00,90.00,-81.00,OPEN,0
5801.669,3,1,1,1.000,1.000,1.000,0.00,90.00,-81.00,OPEN,0
5801.718,3,1,1,1.000,1.000,1.000,0.00,90.00,-81.00,OPEN,0
5801.768,3,1,1,1.000,1.000,1.000,0.00,90.00,-81.00,OPEN,0
5801.820,3,1,1,1.000,1.000,1.000,0.00,90.00,-81.00,OPEN,0
5801.869,3,1,1,1.000,1.000,1.000,0.00,90.00,-81.00,OPEN,0
5801.919,3,1,1,1.000,1.000,1.000,0.00,90.00,-81.00,OPEN,0
5801.971,3,1,1,1.000,1.000,1.000,0.00,90.00,-81.00,OPEN,0
5802.019,3,1,1,1.000,1.000,1.000,0.00,90.00,-81.00,OPEN,0
5802.068,3,1,1,1.000,1.000,1.000,0.00,90.00,-81.00,OPEN,0
5802.118,3,1,1,1.000,1.000,1.000,0.00,90.00,-81.00,OPEN,0
5802.171,3,1,1,1.000,1.000,1.000,0.00,90.00,-81.00,OPEN,0
5802.219,3,1,1,1.000,1.000,1.000,0.00,90.00,-81.00,OPEN,0
5802.269,3,1,1,1.000,1.000,1.000,0.00,90.00,-81.00,OPEN,0
5802.319,3,1,1,1.000,1.000,1.000,0.00,90.00,-81.00,OPEN,0
5802.368,3,1,1,1.000,1.000,1.000,0.00,90.00,-81.00,OPEN,0
5802.419,3,1,1,1.000,1.000,1.000,0.00,90.00,-81.00,OPEN,0
5802.468,3,1,1,1.000,1.000,1.000,0.00,90.00,-81.00,OPEN,0
5802.519,3,1,1,1.000,1.000,1.000,0.00,90.00,-81.00,OPEN,0
5802.570,3,1,1,1.000,1.000,1.000,0.00,90.00,-81.00,OPEN,0
5802.619,3,1,1,1.000,1.000,1.000,0.00,90.00,-81.00,OPEN,0
5802.672,3,1,1,1.000,1.000,1.000,0.00,90.00,-81.00,OPEN,0
5802.719,3,1,1,1.000,1.000,1.000,0.00,90.00,-81.00,OPEN,0
5802.769,3,1,1,1.000,1.000,1.000,0.00,90.00,-81.00,OPEN,0
5802.818,3,1,1,1.000,1.000,1.000,0.00,90.00,-81.00,OPEN,0
5802.869,3,1,1,1.000,1.000,1.000,0.00,90.00,-81.00,OPEN,0
5802.920,3,1,1,1.000,1.000,1.000,0.00,90.00,-81.00,OPEN,0
5802.969,3,1,1,1.000,1.000,1.000,0.00,90.00,-81.00,OPEN,0
5803.019,3,1,1,1.000,1.000,1.000,0.00,90.00,-81.00,OPEN,0
5803.070,3,1,1,1.000,1.000,1.000,0.00,90.00,-81.00,OPEN,0
5803.120,3,1,1,1.000,1.000,1.000,0.00,90.00,-81.00,OPEN,0
5803.169,3,1,1,1.000,1.000,1.000,0.00,90.00,-81.00,OPEN,0
5803.221,3,1,1,1.000,1.000,1.000,0.00,90.00,-81.00,OPEN,0
5803.270,3,1,1,1.000,1.000,1.000,0.00,90.00,-81.00,OPEN,0
5803.320,3,1,1,1.000,1.000,1.000,0.00,90.00,-81.00,OPEN,0
5803.369,3,1,1,1.000,1.000,1.000,0.00,90.00,-81.00,OPEN,0
5803.418,3,1,1,1.000,1.000,1.000,0.00,90.00,-81.00,OPEN,0
5803.469,3,1,1,0.823,1.000,1.000,0.00,90.00,-81.00,OPEN,0
5803.519,3,1,1,0.998,1.000,1.000,0.00,90.00,-81.00,OPEN,0
5803.569,3,1,1,0.965,1.000,1.000,0.00,90.00,-81.00,OPEN,0
5803.618,3,1,1,0.645,1.000,1.000,0.00,90.00,-81.00,OPEN,0
5803.670,3,1,1,0.686,1.000,1.000,0.00,90.00,-81.00,OPEN,0
5803.720,3,1,1,0.696,1.000,1.000,0.00,90.00,-81.00,OPEN,0
5803.771,3,1,1,0.923,1.000,1.000,0.00,90.00,-81.00,OPEN,0
5803.821,3,1,1,0.881,1.000,1.000,0.00,90.00,-81.00,OPEN,0
5803.869,3,1,1,0.755,1.000,1.000,0.00,90.00,-81.00,OPEN,0
5803.918,3,1,1,0.718,1.000,1.000,0.00,90.00,-81.00,OPEN,0
5803.968,3,1,1,0.685,1.000,1.000,0.00,90.00,-81.00,OPEN,0
5804.019,3,1,1,0.607,1.000,1.000,0.00,90.00,-81.00,OPEN,0
5804.070,2,1,1,0.954,1.000,1.000,0.00,90.00,-85.50,OPEN,1
5804.118,2,1,1,0.996,1.000,1.000,0.00,90.00,-85.50,OPEN,0
5804.168,2,1,1,0.999,1.000,1.000,0.00,90.00,-85.50,OPEN,0
5804.218,2,1,1,1.000,1.000,1.000,0.00,90.00,-90.00,OPEN,1
5804.271,2,1,1,1.000,1.000,1.000,0.00,90.00,-90.00,OPEN,0
5804.318,2,1,1,1.000,1.000,1.000,0.00,90.00,-94.50,OPEN,1
5804.370,0,1,1,1.000,1.000,1.000,0.00,90.00,-94.50,OPEN,0
5804.419,0,1,1,0.999,1.000,1.000,0.00,90.00,-94.50,OPEN,0
5804.468,0,1,1,0.999,1.000,1.000,0.00,90.00,-94.50,OPEN,0
5804.527,0,1,1,0.999,1.000,1.000,0.00,90.00,-94.50,OPEN,0
5804.570,0,1,1,0.999,1.000,1.000,0.00,90.00,-94.50,OPEN,0
5804.619,0,1,1,0.999,1.000,1.000,0.00,90.00,-94.50,OPEN,0
5804.669,0,1,1,0.997,1.000,1.000,0.00,90.00,-94.50,OPEN,0
5804.719,0,1,1,0.997,1.000,1.000,0.00,90.00,-94.50,OPEN,0
5804.768,0,1,1,0.992,1.000,1.000,0.00,90.00,-94.50,OPEN,0
5804.820,0,1,1,0.997,1.000,1.000,0.00,90.00,-94.50,OPEN,0
5804.869,0,1,1,0.997,1.000,1.000,0.00,90.00,-94.50,OPEN,0
5804.920,0,1,1,0.998,1.000,1.000,0.00,90.00,-94.50,OPEN,0
5804.968,0,1,1,0.999,1.000,1.000,0.00,90.00,-94.50,OPEN,0
5805.019,0,1,1,0.999,1.000,1.000,0.00,90.00,-94.50,OPEN,0
5805.071,0,1,1,0.997,1.000,1.000,0.00,90.00,-94.50,OPEN,0
5805.119,0,1,1,0.996,1.000,1.000,0.00,90.00,-94.50,OPEN,0
5805.169,0,1,1,0.987,1.000,1.000,0.00,90.00,-94.50,OPEN,0
5805.218,0,1,1,0.907,1.000,1.000,0.00,90.00,-94.50,OPEN,0
5805.270,0,1,1,0.974,1.000,1.000,0.00,90.00,-94.50,OPEN,0
5805.320,0,1,1,0.571,1.000,1.000,0.00,90.00,-94.50,OPEN,0
5805.372,0,1,1,0.773,1.000,1.000,0.00,90.00,-94.50,OPEN,0
5805.420,0,1,1,0.933,1.000,1.000,0.00,90.00,-94.50,OPEN,0
5805.468,0,1,1,0.906,1.000,1.000,0.00,90.00,-94.50,OPEN,0
5805.518,0,1,1,0.887,1.000,1.000,0.00,90.00,-94.50,OPEN,0
5805.570,0,1,1,0.962,1.000,1.000,0.00,90.00,-94.50,OPEN,0
5805.620,0,1,1,0.916,1.000,1.000,0.00,90.00,-94.50,OPEN,0
5805.668,0,1,1,0.817,1.000,1.000,0.00,90.00,-94.50,OPEN,0
5805.720,0,1,1,0.689,1.000,1.000,0.00,90.00,-94.50,OPEN,0
5805.769,0,1,1,0.734,1.000,1.000,0.00,90.00,-94.50,OPEN,0
5805.820,0,1,1,0.777,1.000,1.000,0.00,90.00,-94.50,OPEN,0
5805.871,1,1,1,0.803,1.000,1.000,0.00,90.00,-90.00,OPEN,1
5805.922,1,1,1,0.811,1.000,1.000,0.00,90.00,-90.00,OPEN,0
5805.970,1,1,1,0.826,1.000,1.000,0.00,90.00,-90.00,OPEN,0
5806.019,1,1,1,0.830,1.000,1.000,0.00,90.00,-85.50,OPEN,1
5806.071,1,1,1,0.826,1.000,1.000,0.00,90.00,-85.50,OPEN,0
5806.119,1,1,1,0.772,1.000,1.000,0.00,90.00,-85.50,OPEN,0
5806.170,1,1,1,0.620,1.000,1.000,0.00,90.00,-81.00,OPEN,1
5806.267,1,1,1,0.511,1.000,1.000,0.00,90.00,-81.00,OPEN,0
5806.275,1,1,1,0.670,1.000,1.000,0.00,90.00,-76.50,OPEN,1
5806.321,1,1,1,0.645,1.000,1.000,0.00,90.00,-76.50,OPEN,0
5806.371,1,1,1,0.679,1.000,1.000,0.00,90.00,-76.50,OPEN,0
5806.422,1,1,1,0.700,1.000,1.000,0.00,90.00,-72.00,OPEN,1
5806.472,1,1,1,0.705,1.000,1.000,0.00,90.00,-72.00,OPEN,0
5806.520,1,1,1,0.735,1.000,1.000,0.00,90.00,-72.00,OPEN,0
5806.568,1,1,1,0.748,1.000,1.000,0.00,90.00,-67.50,OPEN,1
5806.676,1,1,1,0.815,1.000,1.000,0.00,90.00,-63.00,OPEN,1
5806.711,3,1,1,0.841,1.000,1.000,0.00,90.00,-63.00,CLOSED,0
5806.759,3,1,1,0.882,1.000,1.000,0.00,90.00,-63.00,CLOSED,0
5806.769,3,1,1,0.893,1.000,1.000,0.00,90.00,-63.00,CLOSED,0
5806.819,3,1,1,0.864,1.000,1.000,0.00,90.00,-63.00,CLOSED,0
5806.868,3,1,1,0.766,1.000,1.000,0.00,90.00,-63.00,CLOSED,0
5806.920,3,1,1,0.537,1.000,1.000,0.00,90.00,-63.00,CLOSED,0
5806.972,3,1,1,0.854,1.000,1.000,0.00,90.00,-63.00,CLOSED,0
5807.019,3,1,1,0.960,1.000,1.000,0.00,90.00,-63.00,CLOSED,0
5807.068,3,1,1,0.989,1.000,1.000,0.00,90.00,-63.00,CLOSED,0
5807.121,3,1,1,0.996,1.000,1.000,0.00,90.00,-63.00,CLOSED,0
5807.171,3,1,1,0.997,1.000,1.000,0.00,90.00,-63.00,CLOSED,0
5807.220,3,1,1,0.998,1.000,1.000,0.00,90.00,-63.00,CLOSED,0
5807.270,3,1,1,0.998,1.000,1.000,0.00,90.00,-63.00,CLOSED,0
5807.318,1,1,1,0.995,1.000,1.000,0.00,90.00,-58.50,CLOSED,1
5807.369,1,1,1,0.982,1.000,1.000,0.00,90.00,-58.50,CLOSED,0
5807.419,1,1,1,0.944,1.000,1.000,0.00,90.00,-54.00,CLOSED,1
5807.490,1,1,1,0.747,1.000,1.000,0.00,90.00,-54.00,CLOSED,0
5807.521,1,1,1,0.496,1.000,1.000,0.00,90.00,-49.50,CLOSED,1
5807.568,1,1,1,0.714,1.000,1.000,0.00,90.00,-49.50,CLOSED,0
5807.620,1,1,1,0.838,1.000,1.000,0.00,90.00,-49.50,CLOSED,0
5807.669,1,1,1,0.856,1.000,1.000,0.00,90.00,-45.00,CLOSED,1
5807.721,1,1,1,0.901,1.000,1.000,0.00,90.00,-45.00,CLOSED,0
5807.771,1,1,1,0.920,1.000,1.000,0.00,90.00,-40.50,CLOSED,1
5807.896,1,1,1,0.933,1.000,1.000,0.00,90.00,-36.00,CLOSED,1
5807.913,1,1,1,0.945,1.000,1.000,0.00,90.00,-36.00,CLOSED,0
5807.922,3,1,1,0.961,1.000,1.000,0.00,90.00,-36.00,OPEN,0
5808.103,3,1,1,0.975,1.000,1.000,0.00,90.00,-36.00,OPEN,0
5808.111,3,1,1,0.983,1.000,1.000,0.00,90.00,-36.00,OPEN,0
5808.117,3,1,1,0.988,1.000,1.000,0.00,90.00,-36.00,OPEN,0
5808.124,3,1,1,0.990,1.000,1.000,0.00,90.00,-36.00,OPEN,0
5808.170,3,1,1,0.983,1.000,1.000,0.00,90.00,-36.00,OPEN,0
5808.219,3,1,1,0.956,1.000,1.000,0.00,90.00,-36.00,OPEN,0
5808.270,3,1,1,0.788,1.000,1.000,0.00,90.00,-36.00,OPEN,0
5808.320,3,1,1,0.728,1.000,1.000,0.00,90.00,-36.00,OPEN,0
5808.369,3,1,1,0.921,1.000,1.000,0.00,90.00,-36.00,OPEN,0
5808.419,3,1,1,0.986,1.000,1.000,0.00,90.00,-36.00,OPEN,0
5808.470,3,1,1,0.995,1.000,1.000,0.00,90.00,-36.00,OPEN,0
5808.521,3,1,1,0.998,1.000,1.000,0.00,90.00,-36.00,OPEN,0
5808.571,3,1,1,0.999,1.000,1.000,0.00,90.00,-36.00,OPEN,0
5808.621,3,1,1,0.999,1.000,1.000,0.00,90.00,-36.00,OPEN,0
5808.670,3,1,1,1.000,1.000,1.000,0.00,90.00,-36.00,OPEN,0
5808.720,3,1,1,1.000,1.000,1.000,0.00,90.00,-36.00,OPEN,0
5808.770,3,1,1,1.000,1.000,1.000,0.00,90.00,-36.00,OPEN,0
5808.819,3,1,1,1.000,1.000,1.000,0.00,90.00,-36.00,OPEN,0
5808.870,3,1,1,1.000,1.000,1.000,0.00,90.00,-36.00,OPEN,0
5808.921,3,1,1,1.000,1.000,1.000,0.00,90.00,-36.00,OPEN,0
5808.973,3,1,1,1.000,1.000,1.000,0.00,90.00,-36.00,OPEN,0
5809.019,3,1,1,1.000,1.000,1.000,0.00,90.00,-36.00,OPEN,0
5809.072,3,1,1,1.000,1.000,1.000,0.00,90.00,-36.00,OPEN,0
5809.120,3,1,1,1.000,1.000,1.000,0.00,90.00,-36.00,OPEN,0
5809.170,3,1,1,1.000,1.000,1.000,0.00,90.00,-36.00,OPEN,0
5809.220,3,1,1,1.000,1.000,1.000,0.00,90.00,-36.00,OPEN,0
5809.271,3,1,1,1.000,1.000,1.000,0.00,90.00,-36.00,OPEN,0
5809.320,3,1,1,1.000,1.000,1.000,0.00,90.00,-36.00,OPEN,0
5809.370,3,1,1,1.000,1.000,1.000,0.00,90.00,-36.00,OPEN,0
5809.420,3,1,1,1.000,1.000,1.000,0.00,90.00,-36.00,OPEN,0
5809.469,3,1,1,0.995,1.000,1.000,0.00,90.00,-36.00,OPEN,0
5809.520,3,1,1,0.962,1.000,1.000,0.00,90.00,-36.00,OPEN,0
5809.569,3,1,1,0.970,1.000,1.000,0.00,90.00,-36.00,OPEN,0
5809.623,3,1,1,0.988,1.000,1.000,0.00,90.00,-36.00,OPEN,0
5809.669,3,1,1,0.998,1.000,1.000,0.00,90.00,-36.00,OPEN,0
5809.721,3,1,1,0.999,1.000,1.000,0.00,90.00,-36.00,OPEN,0
5809.770,3,1,1,0.999,1.000,1.000,0.00,90.00,-36.00,OPEN,0
5809.819,3,1,1,0.999,1.000,1.000,0.00,90.00,-36.00,OPEN,0
5809.869,3,1,1,0.999,1.000,1.000,0.00,90.00,-36.00,OPEN,0
5809.920,3,1,1,0.999,1.000,1.000,0.00,90.00,-36.00,OPEN,0
5809.970,3,1,1,0.999,1.000,1.000,0.00,90.00,-36.00,OPEN,0
5810.019,3,1,1,0.998,1.000,1.000,0.00,90.00,-36.00,OPEN,0
5810.070,3,1,1,0.995,1.000,1.000,0.00,90.00,-36.00,OPEN,0
5810.121,3,1,1,0.978,1.000,1.000,0.00,90.00,-36.00,OPEN,0
5810.171,3,1,1,0.944,1.000,1.000,0.00,90.00,-36.00,OPEN,0
5810.219,3,1,1,0.900,1.000,1.000,0.00,90.00,-36.00,OPEN,0
5810.270,3,1,1,0.843,1.000,1.000,0.00,90.00,-36.00,OPEN,0
5810.320,3,1,1,0.904,1.000,1.000,0.00,90.00,-36.00,OPEN,0
5810.370,3,1,1,0.965,1.000,1.000,0.00,90.00,-36.00,OPEN,0
5810.420,3,1,1,0.986,1.000,1.000,0.00,90.00,-36.00,OPEN,0
5810.470,3,1,1,0.994,1.000,1.000,0.00,90.00,-36.00,OPEN,0
5810.519,3,1,1,0.998,1.000,1.000,0.00,90.00,-36.00,OPEN,0
5810.570,3,1,1,0.999,1.000,1.000,0.00,90.00,-36.00,OPEN,0
5810.622,3,1,1,0.999,1.000,1.000,0.00,90.00,-36.00,OPEN,0
5810.671,3,1,1,1.000,1.000,1.000,0.00,90.00,-36.00,OPEN,0
5810.720,3,1,1,1.000,1.000,1.000,0.00,90.00,-36.00,OPEN,0
5810.769,3,1,1,0.999,1.000,1.000,0.00,90.00,-36.00,OPEN,0
5810.820,3,1,1,0.999,1.000,1.000,0.00,90.00,-36.00,OPEN,0
5810.869,3,1,1,0.997,1.000,1.000,0.00,90.00,-36.00,OPEN,0
5810.920,3,1,1,0.990,1.000,1.000,0.00,90.00,-36.00,OPEN,0
5810.972,3,1,1,0.969,1.000,1.000,0.00,90.00,-36.00,OPEN,0
5811.020,3,1,1,0.945,1.000,1.000,0.00,90.00,-36.00,OPEN,0
5811.070,3,1,1,0.941,1.000,1.000,0.00,90.00,-36.00,OPEN,0
5811.120,3,1,1,0.962,1.000,1.000,0.00,90.00,-36.00,OPEN,0
5811.170,3,1,1,0.979,1.000,1.000,0.00,90.00,-36.00,OPEN,0
5811.222,3,1,1,0.993,1.000,1.000,0.00,90.00,-36.00,OPEN,0
5811.270,3,1,1,0.999,1.000,1.000,0.00,90.00,-36.00,OPEN,0
5811.320,3,1,1,1.000,1.000,1.000,0.00,90.00,-36.00,OPEN,0
5811.371,3,1,1,1.000,1.000,1.000,0.00,90.00,-36.00,OPEN,0
5811.420,3,1,1,1.000,1.000,1.000,0.00,90.00,-36.00,OPEN,0
5811.470,3,1,1,1.000,1.000,1.000,0.00,90.00,-36.00,OPEN,0
5811.520,3,1,1,1.000,1.000,1.000,0.00,90.00,-36.00,OPEN,0
5811.569,3,1,1,1.000,1.000,1.000,0.00,90.00,-36.00,OPEN,0
5811.620,3,1,1,1.000,1.000,1.000,0.00,90.00,-36.00,OPEN,0
5811.671,3,1,1,1.000,1.000,1.000,0.00,90.00,-36.00,OPEN,0
5811.721,3,1,1,0.997,1.000,1.000,0.00,90.00,-36.00,OPEN,0
5811.780,3,1,1,0.944,1.000,1.000,0.00,90.00,-36.00,OPEN,0
5811.818,3,1,1,0.865,1.000,1.000,0.00,90.00,-36.00,OPEN,0
5811.871,3,1,1,0.708,1.000,1.000,0.00,90.00,-36.00,OPEN,0
5811.926,3,1,1,0.659,1.000,1.000,0.00,90.00,-36.00,OPEN,0
5811.970,3,1,1,0.669,1.000,1.000,0.00,90.00,-36.00,OPEN,0
5812.021,3,1,1,0.578,1.000,1.000,0.00,90.00,-36.00,OPEN,0
5812.070,3,1,1,0.555,1.000,1.000,0.00,90.00,-36.00,OPEN,0
5812.121,3,1,1,0.639,1.000,1.000,0.00,90.00,-36.00,OPEN,0
5812.173,3,1,1,0.560,1.000,1.000,0.00,90.00,-36.00,OPEN,0
5812.224,3,1,1,0.964,1.000,1.000,0.00,90.00,-36.00,OPEN,0
5812.274,3,1,1,0.980,1.000,1.000,0.00,90.00,-36.00,OPEN,0
5812.319,3,1,1,0.998,1.000,1.000,0.00,90.00,-36.00,OPEN,0
5812.370,3,1,1,1.000,1.000,1.000,0.00,90.00,-36.00,OPEN,0
5812.419,3,1,1,1.000,1.000,1.000,0.00,90.00,-36.00,OPEN,0
5812.468,3,1,1,1.000,1.000,1.000,0.00,90.00,-36.00,OPEN,0
5812.520,3,1,1,1.000,1.000,1.000,0.00,90.00,-36.00,OPEN,0
5812.571,0,1,1,1.000,1.000,1.000,0.00,90.00,-36.00,OPEN,0
5812.621,0,1,1,1.000,1.000,1.000,0.00,90.00,-36.00,OPEN,0
5812.669,0,1,1,1.000,1.000,1.000,0.00,90.00,-36.00,OPEN,0
5812.720,0,1,1,1.000,1.000,1.000,0.00,90.00,-36.00,OPEN,0
5812.771,0,1,1,1.000,1.000,1.000,0.00,90.00,-36.00,OPEN,0
5812.822,0,1,1,1.000,1.000,1.000,0.00,90.00,-36.00,OPEN,0
5812.869,0,1,1,1.000,1.000,1.000,0.00,90.00,-36.00,OPEN,0
5812.919,0,1,1,1.000,1.000,1.000,0.00,90.00,-36.00,OPEN,0
5812.971,0,1,1,1.000,1.000,1.000,0.00,90.00,-36.00,OPEN,0
5813.020,0,1,1,1.000,1.000,1.000,0.00,90.00,-36.00,OPEN,0
5813.069,0,1,1,1.000,1.000,1.000,0.00,90.00,-36.00,OPEN,0
5813.120,0,1,1,1.000,1.000,1.000,0.00,90.00,-36.00,OPEN,0
5813.169,0,1,1,1.000,1.000,1.000,0.00,90.00,-36.00,OPEN,0
5813.221,0,1,1,1.000,1.000,1.000,0.00,90.00,-36.00,OPEN,0
5813.271,0,1,1,1.000,1.000,1.000,0.00,90.00,-36.00,OPEN,0
5813.319,0,1,1,0.997,1.000,1.000,0.00,90.00,-36.00,OPEN,0
5813.372,0,1,1,0.751,1.000,1.000,0.00,90.00,-36.00,OPEN,0
5813.420,0,1,1,0.777,1.000,1.000,0.00,90.00,-36.00,OPEN,0
5813.469,0,1,1,0.868,1.000,1.000,0.00,90.00,-36.00,OPEN,0
5813.520,0,1,1,0.916,1.000,1.000,0.00,90.00,-36.00,OPEN,0
5813.571,0,1,1,0.975,1.000,1.000,0.00,90.00,-36.00,OPEN,0
5813.620,0,1,1,0.993,1.000,1.000,0.00,90.00,-36.00,OPEN,0
5813.670,0,1,1,0.976,1.000,1.000,0.00,90.00,-36.00,OPEN,0
5813.720,0,1,1,0.951,1.000,1.000,0.00,90.00,-36.00,OPEN,0
5813.770,0,1,1,0.973,1.000,1.000,0.00,90.00,-36.00,OPEN,0
5813.820,0,1,1,0.972,1.000,1.000,0.00,90.00,-36.00,OPEN,0
5813.871,0,1,1,0.963,1.000,1.000,0.00,90.00,-36.00,OPEN,0
5813.932,0,1,1,0.954,1.000,1.000,0.00,90.00,-36.00,OPEN,0
5813.973,0,1,1,0.956,1.000,1.000,0.00,90.00,-36.00,OPEN,0
5814.019,0,1,1,0.955,1.000,1.000,0.00,90.00,-36.00,OPEN,0
5814.070,0,1,1,0.963,1.000,1.000,0.00,90.00,-36.00,OPEN,0
5814.119,3,1,1,0.967,1.000,1.000,0.00,90.00,-36.00,CLOSED,0
5814.317,3,1,1,0.987,1.000,1.000,0.00,90.00,-36.00,CLOSED,0
5814.326,3,1,1,0.994,1.000,1.000,0.00,90.00,-36.00,CLOSED,0
5814.332,3,1,1,0.999,1.000,1.000,0.00,90.00,-36.00,CLOSED,0
5814.339,3,1,1,0.999,1.000,1.000,0.00,90.00,-36.00,CLOSED,0
5814.371,3,1,1,0.999,1.000,1.000,0.00,90.00,-36.00,CLOSED,0
5814.423,3,1,1,0.995,1.000,1.000,0.00,90.00,-36.00,CLOSED,0
5814.470,3,1,1,0.973,1.000,1.000,0.00,90.00,-36.00,CLOSED,0
5814.519,3,1,1,0.971,1.000,1.000,0.00,90.00,-36.00,CLOSED,0
5814.570,3,1,1,0.908,1.000,1.000,0.00,90.00,-36.00,CLOSED,0
5814.620,3,1,1,0.944,1.000,1.000,0.00,90.00,-36.00,CLOSED,0
5814.670,3,1,1,0.946,1.000,1.000,0.00,90.00,-36.00,CLOSED,0
5814.720,3,1,1,0.976,1.000,1.000,0.00,90.00,-36.00,CLOSED,0
5814.769,3,1,1,0.989,1.000,1.000,0.00,90.00,-36.00,CLOSED,0
5814.820,3,1,1,0.995,1.000,1.000,0.00,90.00,-36.00,CLOSED,0
5814.870,3,1,1,0.998,1.000,1.000,0.00,90.00,-36.00,CLOSED,0
5814.920,3,1,1,0.999,1.000,1.000,0.00,90.00,-36.00,CLOSED,0
5814.973,3,1,1,0.999,1.000,1.000,0.00,90.00,-36.00,CLOSED,0
5815.019,3,1,1,0.999,1.000,1.000,0.00,90.00,-36.00,CLOSED,0
5815.070,3,1,1,1.000,1.000,1.000,0.00,90.00,-36.00,CLOSED,0
5815.119,3,1,1,1.000,1.000,1.000,0.00,90.00,-36.00,CLOSED,0
5815.171,3,1,1,1.000,1.000,1.000,0.00,90.00,-36.00,CLOSED,0
5815.219,3,1,1,1.000,1.000,1.000,0.00,90.00,-36.00,CLOSED,0
5815.270,3,1,1,1.000,1.000,1.000,0.00,90.00,-36.00,CLOSED,0
5815.320,3,1,1,1.000,1.000,1.000,0.00,90.00,-36.00,CLOSED,0
5815.369,3,1,1,1.000,1.000,1.000,0.00,90.00,-36.00,CLOSED,0
5815.419,3,1,1,1.000,1.000,1.000,0.00,90.00,-36.00,CLOSED,0
5815.471,3,1,1,1.000,1.000,1.000,0.00,90.00,-36.00,CLOSED,0
5815.519,3,1,1,1.000,1.000,1.000,0.00,90.00,-36.00,CLOSED,0
5815.570,3,1,1,1.000,1.000,1.000,0.00,90.00,-36.00,CLOSED,0
5815.622,3,1,1,1.000,1.000,1.000,0.00,90.00,-36.00,CLOSED,0
5815.670,3,1,1,1.000,1.000,1.000,0.00,90.00,-36.00,CLOSED,0
5815.721,3,1,1,1.000,1.000,1.000,0.00,90.00,-36.00,CLOSED,0
5815.770,3,1,1,1.000,1.000,1.000,0.00,90.00,-36.00,CLOSED,0
5815.820,3,1,1,1.000,1.000,1.000,0.00,90.00,-36.00,CLOSED,0
5815.869,3,1,1,1.000,1.000,1.000,0.00,90.00,-36.00,CLOSED,0
5815.920,3,1,1,1.000,1.000,1.000,0.00,90.00,-36.00,CLOSED,0
5815.970,3,1,1,1.000,1.000,1.000,0.00,90.00,-36.00,CLOSED,0
5816.020,3,1,1,1.000,1.000,1.000,0.00,90.00,-36.00,CLOSED,0
5816.069,3,1,1,1.000,1.000,1.000,0.00,90.00,-36.00,CLOSED,0
5816.121,3,1,1,0.999,1.000,1.000,0.00,90.00,-36.00,CLOSED,0
5816.170,3,1,1,0.981,1.000,1.000,0.00,90.00,-36.00,CLOSED,0
5816.219,3,1,1,0.772,1.000,1.000,0.00,90.00,-36.00,CLOSED,0
5816.270,3,1,1,0.615,1.000,1.000,0.00,90.00,-36.00,CLOSED,0
5816.320,3,1,1,0.572,1.000,1.000,0.00,90.00,-36.00,CLOSED,0
5816.371,3,1,1,0.541,1.000,1.000,0.00,90.00,-36.00,CLOSED,0
5816.420,3,1,1,0.663,1.000,1.000,0.00,90.00,-36.00,CLOSED,0
5816.470,3,1,1,0.813,1.000,1.000,0.00,90.00,-36.00,CLOSED,0
5816.521,3,1,1,0.572,1.000,1.000,0.00,90.00,-36.00,CLOSED,0
5816.571,3,1,1,0.831,1.000,1.000,0.00,90.00,-36.00,CLOSED,0
5816.619,3,1,1,0.988,1.000,0.999,0.00,90.00,-36.00,CLOSED,0
5816.671,3,1,1,1.000,1.000,0.999,0.00,90.00,-36.00,CLOSED,0
5816.720,3,1,1,1.000,1.000,1.000,0.00,90.00,-36.00,CLOSED,0
5816.769,3,1,1,1.000,1.000,1.000,0.00,90.00,-36.00,CLOSED,0
5816.819,3,1,1,1.000,1.000,1.000,0.00,90.00,-36.00,CLOSED,0
5816.870,0,1,1,1.000,1.000,1.000,0.00,90.00,-36.00,CLOSED,0
5816.920,0,1,1,1.000,1.000,1.000,0.00,90.00,-36.00,CLOSED,0
5816.970,0,1,1,0.984,1.000,1.000,0.00,90.00,-36.00,CLOSED,0
5817.020,0,1,1,0.725,1.000,1.000,0.00,90.00,-36.00,CLOSED,0
5817.070,0,1,1,0.990,1.000,1.000,0.00,90.00,-36.00,CLOSED,0
5817.120,0,1,1,0.998,1.000,1.000,0.00,90.00,-36.00,CLOSED,0
5817.171,0,1,1,0.999,1.000,1.000,0.00,90.00,-36.00,CLOSED,0
5817.220,0,1,1,1.000,1.000,1.000,0.00,90.00,-36.00,CLOSED,0
5817.269,0,1,1,1.000,1.000,1.000,0.00,90.00,-36.00,CLOSED,0
5817.319,0,1,1,1.000,1.000,1.000,0.00,90.00,-36.00,CLOSED,0
5817.372,0,1,1,1.000,1.000,1.000,0.00,90.00,-36.00,CLOSED,0
5817.421,0,1,1,0.993,1.000,1.000,0.00,90.00,-36.00,CLOSED,0
5817.470,0,1,1,0.853,1.000,1.000,0.00,90.00,-36.00,CLOSED,0
5817.520,0,1,1,0.648,1.000,1.000,0.00,90.00,-36.00,CLOSED,0
5817.571,0,1,1,0.557,1.000,1.000,0.00,90.00,-36.00,CLOSED,0
5817.620,0,1,1,0.519,1.000,1.000,0.00,90.00,-36.00,CLOSED,0
5817.670,0,1,1,0.716,1.000,1.000,0.00,90.00,-36.00,CLOSED,0
5817.722,0,1,1,0.791,1.000,1.000,0.00,90.00,-36.00,CLOSED,0
5817.770,0,1,1,0.794,1.000,1.000,0.00,90.00,-36.00,CLOSED,0
5817.821,0,1,1,0.666,1.000,1.000,0.00,90.00,-36.00,CLOSED,0
5817.870,0,1,1,0.708,1.000,1.000,0.00,90.00,-36.00,CLOSED,0
5817.922,1,1,1,0.958,1.000,1.000,0.00,90.00,-31.50,CLOSED,1
5817.972,1,1,1,0.994,1.000,1.000,0.00,90.00,-31.50,CLOSED,0
5818.020,1,1,1,0.998,1.000,1.000,0.00,90.00,-31.50,CLOSED,0
5818.071,1,1,1,0.999,1.000,1.000,0.00,90.00,-27.00,CLOSED,1
5818.121,1,1,1,0.999,1.000,1.000,0.00,90.00,-27.00,CLOSED,0
5818.172,1,1,1,1.000,1.000,1.000,0.00,90.00,-22.50,CLOSED,1
5818.280,1,1,1,0.999,1.000,1.000,0.00,90.00,-18.00,CLOSED,1
5818.315,1,1,1,0.999,1.000,1.000,0.00,90.00,-18.00,CLOSED,0
5818.323,1,1,1,0.998,1.000,1.000,0.00,90.00,-18.00,CLOSED,0
5818.371,1,1,1,0.994,1.000,1.000,0.00,90.00,-18.00,CLOSED,0
5818.421,1,1,1,0.991,1.000,1.000,0.00,90.00,-13.50,CLOSED,1
5818.484,1,1,1,0.983,1.000,1.000,0.00,90.00,-13.50,CLOSED,0
5818.520,1,1,1,0.971,1.000,1.000,0.00,90.00,-13.50,CLOSED,0
5818.571,1,1,1,0.954,1.000,1.000,0.00,90.00,-9.00,CLOSED,1
5818.687,1,1,1,0.942,1.000,1.000,0.00,90.00,-4.50,CLOSED,1
5818.714,1,1,1,0.930,1.000,1.000,0.00,90.00,-4.50,CLOSED,0
5818.723,1,1,1,0.953,1.000,1.000,0.00,90.00,-4.50,CLOSED,0
5818.770,1,1,1,0.984,1.000,1.000,0.00,90.00,-4.50,CLOSED,0
5818.819,1,1,1,0.993,1.000,1.000,0.00,90.00,0.00,CLOSED,1
5818.890,1,1,1,0.997,1.000,1.000,0.00,90.00,0.00,CLOSED,0
5818.920,1,1,1,0.999,1.000,1.000,0.00,90.00,4.50,CLOSED,1
5818.972,1,1,1,1.000,1.000,1.000,0.00,90.00,4.50,CLOSED,0
5819.019,1,1,1,1.000,1.000,1.000,0.00,90.00,4.50,CLOSED,0
5819.070,1,1,1,1.000,1.000,1.000,0.00,90.00,9.00,CLOSED,1
5819.120,1,1,1,1.000,1.000,1.000,0.00,90.00,9.00,CLOSED,0
5819.170,1,1,1,1.000,1.000,1.000,0.00,90.00,13.50,CLOSED,1
5819.300,1,1,1,1.000,1.000,1.000,0.00,90.00,18.00,CLOSED,1
5819.317,1,1,1,1.000,1.000,1.000,0.00,90.00,18.00,CLOSED,0
5819.324,1,1,1,1.000,1.000,1.000,0.00,90.00,18.00,CLOSED,0
5819.371,1,1,1,1.000,1.000,1.000,0.00,90.00,18.00,CLOSED,0
5819.421,1,1,1,0.999,1.000,1.000,0.00,90.00,22.50,CLOSED,1
5819.505,1,1,1,0.999,1.000,1.000,0.00,90.00,22.50,CLOSED,0
5819.521,1,1,1,1.000,1.000,1.000,0.00,90.00,22.50,CLOSED,0
5819.571,1,1,1,1.000,1.000,1.000,0.00,90.00,27.00,CLOSED,1
5819.624,1,1,1,1.000,1.000,1.000,0.00,90.00,27.00,CLOSED,0
5819.671,1,1,1,1.000,1.000,1.000,0.00,90.00,27.00,CLOSED,0
5819.722,1,1,1,1.000,1.000,1.000,0.00,90.00,31.50,CLOSED,1
5819.774,1,1,1,1.000,1.000,1.000,0.00,90.00,31.50,CLOSED,0
5819.821,1,1,1,1.000,1.000,1.000,0.00,90.00,31.50,CLOSED,0
5819.869,1,1,1,1.000,1.000,1.000,0.00,90.00,36.00,CLOSED,1
5819.921,1,1,1,1.000,1.000,1.000,0.00,90.00,36.00,CLOSED,0
5819.973,1,1,1,1.000,1.000,1.000,0.00,90.00,40.50,CLOSED,1
5820.052,1,1,1,1.000,1.000,1.000,0.00,90.00,40.50,CLOSED,0
5820.071,1,1,1,1.000,1.000,1.000,0.00,90.00,40.50,CLOSED,0
5820.118,1,1,1,1.000,1.000,1.000,0.00,90.00,45.00,CLOSED,1
5820.170,1,1,1,1.000,1.000,1.000,0.00,90.00,45.00,CLOSED,0
5820.221,1,1,1,1.000,1.000,1.000,0.00,90.00,49.50,CLOSED,1
5820.307,1,1,1,1.000,1.000,1.000,0.00,90.00,49.50,CLOSED,0
5820.322,1,1,1,0.999,1.000,1.000,0.00,90.00,54.00,CLOSED,1
5820.368,1,1,1,0.999,1.000,1.000,0.00,90.00,54.00,CLOSED,0
5820.419,1,1,1,0.997,1.000,1.000,0.00,90.00,54.00,CLOSED,0
5820.469,1,1,1,0.995,1.000,1.000,0.00,90.00,58.50,CLOSED,1
5820.519,1,1,1,0.994,1.000,1.000,0.00,90.00,58.50,CLOSED,0
5820.570,1,1,1,0.985,1.000,1.000,0.00,90.00,63.00,CLOSED,1
5820.716,1,1,1,0.739,1.000,1.000,0.00,90.00,67.50,CLOSED,1
5820.739,1,1,1,0.728,1.000,1.000,0.00,90.00,67.50,CLOSED,0
5820.744,1,1,1,0.774,1.000,1.000,0.00,90.00,67.50,CLOSED,0
5820.772,1,1,1,0.665,1.000,1.000,0.00,90.00,67.50,CLOSED,0
5820.823,1,1,1,0.758,1.000,1.000,0.00,90.00,72.00,CLOSED,1
5820.916,1,1,1,0.740,1.000,1.000,0.00,90.00,72.00,CLOSED,0
5820.922,1,1,1,0.872,1.000,1.000,0.00,90.00,72.00,CLOSED,0
5820.972,1,1,1,0.978,1.000,1.000,0.00,90.00,76.50,CLOSED,1
5821.020,1,1,1,0.993,1.000,1.000,0.00,90.00,76.50,CLOSED,0
5821.072,1,1,1,0.997,1.000,1.000,0.00,90.00,76.50,CLOSED,0
5821.120,1,1,1,0.996,1.000,1.000,0.00,90.00,81.00,CLOSED,1
5821.171,1,1,1,0.992,1.000,1.000,0.00,90.00,81.00,CLOSED,0
5821.221,1,1,1,0.993,1.000,1.000,0.00,90.00,85.50,CLOSED,1
5821.316,1,1,1,0.940,1.000,1.000,0.00,90.00,85.50,CLOSED,0
5821.323,1,1,1,0.495,1.000,1.000,0.00,90.00,90.00,CLOSED,1
5821.372,1,1,1,0.448,1.000,1.000,0.00,90.00,90.00,CLOSED,0
5821.421,1,1,1,0.659,1.000,1.000,0.00,90.00,90.00,CLOSED,0
5821.469,1,1,1,0.717,1.000,1.000,0.00,90.00,94.50,CLOSED,1
5821.520,1,1,1,0.828,1.000,1.000,0.00,90.00,94.50,CLOSED,0
5821.570,1,1,1,0.858,1.000,1.000,0.00,90.00,99.00,CLOSED,1
5821.717,1,1,1,0.757,1.000,1.000,0.00,90.00,103.50,CLOSED,1
5821.749,1,1,1,0.951,1.000,1.000,0.00,90.00,103.50,CLOSED,0
5821.755,1,1,1,0.698,1.000,1.000,0.00,90.00,103.50,CLOSED,0
5821.771,0,1,1,0.996,1.000,1.000,0.00,90.00,103.50,CLOSED,0
5821.822,0,1,1,1.000,1.000,1.000,0.00,90.00,103.50,CLOSED,0
5821.872,0,1,1,1.000,1.000,1.000,0.00,90.00,103.50,CLOSED,0
5821.921,0,1,1,1.000,1.000,1.000,0.00,90.00,103.50,CLOSED,0
5821.971,0,1,1,1.000,1.000,1.000,0.00,90.00,103.50,CLOSED,0
5822.021,0,1,1,1.000,1.000,1.000,0.00,90.00,103.50,CLOSED,0
5822.069,0,1,1,1.000,1.000,1.000,0.00,90.00,103.50,CLOSED,0
5822.119,0,1,1,1.000,1.000,1.000,0.00,90.00,103.50,CLOSED,0
5822.171,0,1,1,1.000,1.000,1.000,0.00,90.00,103.50,CLOSED,0
5822.221,0,1,1,1.000,1.000,1.000,0.00,90.00,103.50,CLOSED,0
5822.269,0,1,1,1.000,1.000,1.000,0.00,90.00,103.50,CLOSED,0
5822.320,0,1,1,1.000,1.000,1.000,0.00,90.00,103.50,CLOSED,0
5822.370,0,1,1,1.000,1.000,1.000,0.00,90.00,103.50,CLOSED,0
5822.420,0,1,1,1.000,1.000,1.000,0.00,90.00,103.50,CLOSED,0
5822.471,0,1,1,1.000,1.000,1.000,0.00,90.00,103.50,CLOSED,0
5822.520,0,1,1,1.000,1.000,1.000,0.00,90.00,103.50,CLOSED,0
5822.570,0,1,1,1.000,1.000,1.000,0.00,90.00,103.50,CLOSED,0
5822.620,0,1,1,1.000,1.000,1.000,0.00,90.00,103.50,CLOSED,0
5822.670,0,1,1,1.000,1.000,1.000,0.00,90.00,103.50,CLOSED,0
5822.718,0,1,1,0.995,1.000,1.000,0.00,90.00,103.50,CLOSED,0
5822.770,0,1,1,0.828,1.000,1.000,0.00,90.00,103.50,CLOSED,0
5822.820,0,1,1,0.701,1.000,1.000,0.00,90.00,103.50,CLOSED,0
5822.872,0,1,1,0.931,1.000,1.000,0.00,90.00,103.50,CLOSED,0
5822.922,0,1,1,0.986,1.000,1.000,0.00,90.00,103.50,CLOSED,0
5822.970,0,1,1,0.997,1.000,0.999,0.00,90.00,103.50,CLOSED,0
5823.021,0,1,1,0.999,1.000,0.999,0.00,90.00,103.50,CLOSED,0
5823.070,0,1,1,0.999,1.000,0.999,0.00,90.00,103.50,CLOSED,0
5823.121,0,1,1,0.999,1.000,0.999,0.00,90.00,103.50,CLOSED,0
5823.169,0,1,1,0.998,1.000,0.999,0.00,90.00,103.50,CLOSED,0
5823.220,1,1,1,0.993,1.000,0.999,0.00,90.00,108.00,CLOSED,1
5823.316,1,1,1,0.987,1.000,1.000,0.00,90.00,108.00,CLOSED,0
5823.326,1,1,1,0.974,1.000,1.000,0.00,90.00,112.50,CLOSED,1
5823.379,1,1,1,0.948,1.000,1.000,0.00,90.00,112.50,CLOSED,0
5823.419,1,1,1,0.864,1.000,1.000,0.00,90.00,112.50,CLOSED,0
5823.472,1,1,1,0.655,1.000,1.000,0.00,90.00,117.00,CLOSED,1
5823.521,1,1,1,0.659,1.000,1.000,0.00,90.00,117.00,CLOSED,0
5823.570,1,1,1,0.850,1.000,1.000,0.00,90.00,117.00,CLOSED,0
5823.620,1,1,1,0.882,1.000,1.000,0.00,90.00,121.50,CLOSED,1
5823.716,1,1,1,0.764,1.000,1.000,0.00,90.00,121.50,CLOSED,0
5823.724,1,1,1,0.547,1.000,1.000,0.00,90.00,126.00,CLOSED,1
5823.769,1,1,1,0.698,1.000,1.000,0.00,90.00,126.00,CLOSED,0
5823.820,1,1,1,0.751,1.000,1.000,0.00,90.00,126.00,CLOSED,0
5823.872,1,1,1,0.772,1.000,0.999,0.00,90.00,130.50,CLOSED,1
5823.935,1,1,1,0.808,1.000,0.999,0.00,90.00,130.50,CLOSED,0
5823.972,1,1,1,0.898,1.000,0.999,0.00,90.00,135.00,CLOSED,1
5824.022,1,1,1,0.988,1.000,0.999,0.00,90.00,135.00,CLOSED,0
5824.070,1,1,1,1.000,1.000,1.000,0.00,90.00,135.00,CLOSED,0
5824.122,1,1,1,1.000,1.000,1.000,0.00,90.00,139.50,CLOSED,1
5824.171,1,1,1,1.000,1.000,1.000,0.00,90.00,139.50,CLOSED,0
5824.220,1,1,1,1.000,1.000,1.000,0.00,90.00,139.50,CLOSED,0
5824.269,1,1,1,1.000,1.000,1.000,0.00,90.00,144.00,CLOSED,1
5824.320,1,1,1,1.000,1.000,1.000,0.00,90.00,144.00,CLOSED,0
5824.372,1,1,1,1.000,1.000,1.000,0.00,90.00,148.50,CLOSED,1
5824.421,1,1,1,1.000,1.000,1.000,0.00,90.00,148.50,CLOSED,0
5824.469,1,1,1,0.999,1.000,1.000,0.00,90.00,148.50,CLOSED,0
5824.520,1,1,1,0.999,1.000,1.000,0.00,90.00,153.00,CLOSED,1
5824.572,1,1,1,0.998,1.000,1.000,0.00,90.00,153.00,CLOSED,0
5824.622,1,1,1,0.995,1.000,1.000,0.00,90.00,157.50,CLOSED,1
5824.717,1,1,1,0.991,1.000,1.000,0.00,90.00,157.50,CLOSED,0
5824.726,1,1,1,0.972,1.000,1.000,0.00,90.00,162.00,CLOSED,1
5824.769,1,1,1,0.623,1.000,1.000,0.00,90.00,162.00,CLOSED,0
5824.819,1,1,1,0.923,1.000,1.000,0.00,90.00,162.00,CLOSED,0
5824.871,1,1,1,0.993,1.000,1.000,0.00,90.00,166.50,CLOSED,1
5824.919,1,1,1,0.819,1.000,1.000,0.00,90.00,166.50,CLOSED,0
5824.969,1,1,1,0.806,1.000,1.000,0.00,90.00,166.50,CLOSED,0
5825.019,1,1,1,1.000,1.000,1.000,0.00,90.00,171.00,CLOSED,1
5825.117,1,1,1,1.000,1.000,1.000,0.00,90.00,171.00,CLOSED,0
5825.124,1,1,1,1.000,1.000,1.000,0.00,90.00,175.50,CLOSED,1
5825.169,1,1,1,1.000,1.000,1.000,0.00,90.00,175.50,CLOSED,0
5825.220,1,1,1,1.000,1.000,1.000,0.00,90.00,175.50,CLOSED,0
5825.271,1,1,1,1.000,1.000,1.000,0.00,90.00,180.00,CLOSED,1
5825.319,1,1,1,1.000,1.000,1.000,0.00,90.00,180.00,CLOSED,0
5825.369,0,1,1,1.000,1.000,1.000,0.00,90.00,180.00,CLOSED,0
5825.419,0,1,1,1.000,1.000,1.000,0.00,90.00,180.00,CLOSED,0
5825.470,0,1,1,1.000,1.000,1.000,0.00,90.00,180.00,CLOSED,0
5825.519,0,1,1,1.000,1.000,1.000,0.00,90.00,180.00,CLOSED,0
5825.570,0,1,1,1.000,1.000,1.000,0.00,90.00,180.00,CLOSED,0
5825.621,0,1,1,1.000,1.000,1.000,0.00,90.00,180.00,CLOSED,0
5825.671,0,1,1,1.000,1.000,1.000,0.00,90.00,180.00,CLOSED,0
5825.720,0,1,1,1.000,1.000,1.000,0.00,90.00,180.00,CLOSED,0
5825.770,0,1,1,1.000,1.000,1.000,0.00,90.00,180.00,CLOSED,0
5825.820,0,1,1,1.000,1.000,1.000,0.00,90.00,180.00,CLOSED,0
5825.869,0,1,1,0.999,1.000,1.000,0.00,90.00,180.00,CLOSED,0
5825.921,0,1,1,0.998,1.000,1.000,0.00,90.00,180.00,CLOSED,0
5825.970,0,1,1,0.961,1.000,1.000,0.00,90.00,180.00,CLOSED,0
5826.020,0,1,1,0.998,1.000,1.000,0.00,90.00,180.00,CLOSED,0
5826.071,0,1,1,1.000,1.000,1.000,0.00,90.00,180.00,CLOSED,0
5826.121,0,1,1,1.000,1.000,1.000,0.00,90.00,180.00,CLOSED,0
5826.169,0,1,1,1.000,1.000,1.000,0.00,90.00,180.00,CLOSED,0
5826.220,0,1,1,1.000,1.000,1.000,0.00,90.00,180.00,CLOSED,0
5826.270,0,1,1,1.000,1.000,1.000,0.00,90.00,180.00,CLOSED,0
5826.320,0,1,1,1.000,1.000,1.000,0.00,90.00,180.00,CLOSED,0
5826.370,2,1,1,1.000,1.000,1.000,0.00,90.00,175.50,CLOSED,1
5826.441,2,1,1,1.000,1.000,1.000,0.00,90.00,175.50,CLOSED,0
5826.472,2,1,1,0.999,1.000,1.000,0.00,90.00,171.00,CLOSED,1
5826.520,2,1,1,0.990,1.000,1.000,0.00,90.00,171.00,CLOSED,0
5826.571,2,1,1,0.973,1.000,1.000,0.00,90.00,171.00,CLOSED,0
5826.620,2,1,1,0.957,1.000,1.000,0.00,90.00,166.50,CLOSED,1
5826.671,2,1,1,0.960,1.000,1.000,0.00,90.00,166.50,CLOSED,0
5826.720,2,1,1,0.976,1.000,1.000,0.00,90.00,166.50,CLOSED,0
5826.771,2,1,1,0.993,1.000,1.000,0.00,90.00,162.00,CLOSED,1
5826.843,2,1,1,0.999,1.000,1.000,0.00,90.00,162.00,CLOSED,0
5826.870,2,1,1,1.000,1.000,1.000,0.00,90.00,162.00,CLOSED,0
5826.919,2,1,1,1.000,1.000,1.000,0.00,90.00,157.50,CLOSED,1
5826.969,2,1,1,1.000,1.000,1.000,0.00,90.00,157.50,CLOSED,0
5827.020,2,1,1,1.000,1.000,1.000,0.00,90.00,153.00,CLOSED,1
5827.071,2,1,1,1.000,1.000,1.000,0.00,90.00,153.00,CLOSED,0
5827.119,2,1,1,1.000,1.000,1.000,0.00,90.00,153.00,CLOSED,0
5827.169,2,1,1,1.000,1.000,1.000,0.00,90.00,148.50,CLOSED,1
5827.221,2,1,1,1.000,1.000,1.000,0.00,90.00,148.50,CLOSED,0
5827.269,2,1,1,1.000,1.000,1.000,0.00,90.00,144.00,CLOSED,1
5827.321,2,1,1,1.000,1.000,1.000,0.00,90.00,144.00,CLOSED,0
5827.371,2,1,1,1.000,1.000,1.000,0.00,90.00,139.50,CLOSED,1
5827.422,2,1,1,1.000,1.000,1.000,0.00,90.00,139.50,CLOSED,0
5827.469,2,1,1,1.000,1.000,1.000,0.00,90.00,139.50,CLOSED,0
5827.520,2,1,1,1.000,1.000,1.000,0.00,90.00,135.00,CLOSED,1
5827.569,2,1,1,1.000,1.000,1.000,0.00,90.00,135.00,CLOSED,0
5827.619,2,1,1,1.000,1.000,1.000,0.00,90.00,135.00,CLOSED,0
5827.669,2,1,1,1.000,1.000,1.000,0.00,90.00,130.50,CLOSED,1
5827.721,2,1,1,1.000,1.000,1.000,0.00,90.00,130.50,CLOSED,0
5827.771,2,1,1,1.000,1.000,1.000,0.00,90.00,126.00,CLOSED,1
5827.864,2,1,1,1.000,1.000,1.000,0.00,90.00,126.00,CLOSED,0
5827.873,2,1,1,1.000,1.000,1.000,0.00,90.00,121.50,CLOSED,1
5827.919,2,1,1,1.000,1.000,1.000,0.00,90.00,121.50,CLOSED,0
5827.975,2,1,1,1.000,1.000,1.000,0.00,90.00,117.00,CLOSED,1
5828.068,2,1,1,1.000,1.000,1.000,0.00,90.00,117.00,CLOSED,0
5828.074,2,1,1,1.000,1.000,1.000,0.00,90.00,117.00,CLOSED,0
5828.119,2,1,1,1.000,1.000,1.000,0.00,90.00,112.50,CLOSED,1
5828.170,2,1,1,1.000,1.000,1.000,0.00,90.00,112.50,CLOSED,0
5828.221,2,1,1,1.000,1.000,1.000,0.00,90.00,108.00,CLOSED,1
5828.271,2,1,1,1.000,1.000,1.000,0.00,90.00,108.00,CLOSED,0
5828.320,2,1,1,1.000,1.000,1.000,0.00,90.00,108.00,CLOSED,0
5828.370,2,1,1,1.000,1.000,1.000,0.00,90.00,103.50,CLOSED,1
5828.475,2,1,1,1.000,1.000,1.000,0.00,90.00,99.00,CLOSED,1
5828.518,2,1,1,1.000,1.000,1.000,0.00,90.00,99.00,CLOSED,0
5828.525,2,1,1,1.000,1.000,1.000,0.00,90.00,99.00,CLOSED,0
5828.571,2,1,1,1.000,1.000,1.000,0.00,90.00,99.00,CLOSED,0
5828.619,2,1,1,1.000,1.000,1.000,0.00,90.00,94.50,CLOSED,1
5828.680,2,1,1,1.000,1.000,1.000,0.00,90.00,94.50,CLOSED,0
5828.720,2,1,1,0.998,1.000,1.000,0.00,90.00,90.00,CLOSED,1
5828.769,2,1,1,0.951,1.000,1.000,0.00,90.00,90.00,CLOSED,0
5828.820,2,1,1,0.681,1.000,1.000,0.00,90.00,85.50,CLOSED,1
5828.885,2,1,1,0.533,1.000,1.000,0.00,90.00,85.50,CLOSED,0
5828.920,2,1,1,0.790,1.000,1.000,0.00,90.00,85.50,CLOSED,0
5828.969,2,1,1,0.884,1.000,1.000,0.00,90.00,81.00,CLOSED,1
5829.087,2,1,1,0.896,1.000,1.000,0.00,90.00,76.50,CLOSED,1
5829.118,2,1,1,0.817,1.000,1.000,0.00,90.00,76.50,CLOSED,0
5829.124,2,1,1,0.606,1.000,1.000,0.00,90.00,76.50,CLOSED,0
5829.171,2,1,1,0.986,1.000,1.000,0.00,90.00,76.50,CLOSED,0
5829.219,2,1,1,1.000,1.000,1.000,0.00,90.00,72.00,CLOSED,1
5829.269,2,1,1,1.000,1.000,1.000,0.00,90.00,72.00,CLOSED,0
5829.319,2,1,1,1.000,1.000,1.000,0.00,90.00,72.00,CLOSED,0
5829.368,2,1,1,1.000,1.000,1.000,0.00,90.00,67.50,CLOSED,1
5829.494,2,1,1,1.000,1.000,1.000,0.00,90.00,63.00,CLOSED,1
5829.518,2,1,1,1.000,1.000,1.000,0.00,90.00,63.00,CLOSED,0
5829.524,0,1,1,1.000,1.000,1.000,0.00,90.00,63.00,CLOSED,0
5829.570,0,1,1,1.000,1.000,1.000,0.00,90.00,63.00,CLOSED,0
5829.619,0,1,1,1.000,1.000,1.000,0.00,90.00,63.00,CLOSED,0
5829.671,0,1,1,1.000,1.000,1.000,0.00,90.00,63.00,CLOSED,0
5829.719,0,1,1,1.000,1.000,1.000,0.00,90.00,63.00,CLOSED,0
5829.769,0,1,1,0.999,1.000,1.000,0.00,90.00,63.00,CLOSED,0
5829.818,0,1,1,0.998,1.000,1.000,0.00,90.00,63.00,CLOSED,0
5829.870,0,1,1,0.997,1.000,1.000,0.00,90.00,63.00,CLOSED,0
5829.920,0,1,1,0.999,1.000,1.000,0.00,90.00,63.00,CLOSED,0
5829.969,0,1,1,0.999,1.000,1.000,0.00,90.00,63.00,CLOSED,0
5830.020,0,1,1,1.000,1.000,1.000,0.00,90.00,63.00,CLOSED,0
5830.069,0,1,1,0.996,1.000,1.000,0.00,90.00,63.00,CLOSED,0
5830.119,0,1,1,0.993,1.000,1.000,0.00,90.00,63.00,CLOSED,0
5830.170,0,1,1,0.985,1.000,1.000,0.00,90.00,63.00,CLOSED,0
5830.221,0,1,1,0.989,1.000,1.000,0.00,90.00,63.00,CLOSED,0
5830.269,0,1,1,0.999,1.000,1.000,0.00,90.00,63.00,CLOSED,0
5830.320,0,1,1,0.999,1.000,1.000,0.00,90.00,63.00,CLOSED,0
5830.370,0,1,1,0.991,1.000,1.000,0.00,90.00,63.00,CLOSED,0
5830.420,0,1,1,0.966,1.000,1.000,0.00,90.00,63.00,CLOSED,0
5830.468,0,1,1,0.931,1.000,1.000,0.00,90.00,63.00,CLOSED,0
5830.520,0,1,1,0.763,1.000,1.000,0.00,90.00,63.00,CLOSED,0
5830.568,0,1,1,0.740,1.000,1.000,0.00,90.00,63.00,CLOSED,0
5830.619,0,1,1,0.961,1.000,1.000,0.00,90.00,63.00,CLOSED,0
5830.671,0,1,1,0.999,1.000,1.000,0.00,90.00,63.00,CLOSED,0
5830.719,0,1,1,1.000,1.000,1.000,0.00,90.00,63.00,CLOSED,0
5830.771,0,1,1,1.000,1.000,1.000,0.00,90.00,63.00,CLOSED,0
5830.819,0,1,1,1.000,1.000,1.000,0.00,90.00,63.00,CLOSED,0
5830.868,0,1,1,1.000,1.000,1.000,0.00,90.00,63.00,CLOSED,0
5830.921,0,1,1,1.000,1.000,1.000,0.00,90.00,63.00,CLOSED,0
5830.971,3,1,1,1.000,1.000,1.000,0.00,90.00,63.00,OPEN,0
5831.162,3,1,1,1.000,1.000,1.000,0.00,90.00,63.00,OPEN,0
5831.173,3,1,1,1.000,1.000,1.000,0.00,90.00,63.00,OPEN,0
5831.181,3,1,1,1.000,1.000,1.000,0.00,90.00,63.00,OPEN,0
5831.188,3,1,1,1.000,1.000,1.000,0.00,90.00,63.00,OPEN,0
5831.222,3,1,1,1.000,1.000,1.000,0.00,90.00,63.00,OPEN,0
5831.270,3,1,1,1.000,1.000,1.000,0.00,90.00,63.00,OPEN,0
5831.319,3,1,1,1.000,1.000,1.000,0.00,90.00,63.00,OPEN,0
5831.369,3,1,1,1.000,1.000,1.000,0.00,90.00,63.00,OPEN,0
5831.420,3,1,1,1.000,1.000,1.000,0.00,90.00,63.00,OPEN,0
5831.471,3,1,1,1.000,1.000,1.000,0.00,90.00,63.00,OPEN,0
5831.519,3,1,1,1.000,1.000,1.000,0.00,90.00,63.00,OPEN,0
5831.570,3,1,1,1.000,1.000,1.000,0.00,90.00,63.00,OPEN,0
5831.618,3,1,1,1.000,1.000,1.000,0.00,90.00,63.00,OPEN,0
5831.671,3,1,1,1.000,1.000,1.000,0.00,90.00,63.00,OPEN,0
5831.719,3,1,1,1.000,1.000,1.000,0.00,90.00,63.00,OPEN,0
5831.769,3,1,1,1.000,1.000,1.000,0.00,90.00,63.00,OPEN,0
5831.821,3,1,1,1.000,1.000,1.000,0.00,90.00,63.00,OPEN,0
5831.870,3,1,1,1.000,1.000,1.000,0.00,90.00,63.00,OPEN,0
5831.920,3,1,1,1.000,1.000,1.000,0.00,90.00,63.00,OPEN,0
5831.970,3,1,1,1.000,1.000,1.000,0.00,90.00,63.00,OPEN,0
5832.019,3,1,1,1.000,1.000,1.000,0.00,90.00,63.00,OPEN,0
5832.068,3,1,1,1.000,1.000,1.000,0.00,90.00,63.00,OPEN,0
5832.119,3,1,1,1.000,1.000,1.000,0.00,90.00,63.00,OPEN,0
5832.169,3,1,1,0.999,1.000,1.000,0.00,90.00,63.00,OPEN,0
5832.219,3,1,1,0.995,1.000,1.000,0.00,90.00,63.00,OPEN,0
5832.269,3,1,1,0.894,1.000,1.000,0.00,90.00,63.00,OPEN,0
5832.319,3,1,1,0.515,1.000,1.000,0.00,90.00,63.00,OPEN,0
5832.370,3,1,1,0.953,1.000,1.000,0.00,90.00,63.00,OPEN,0
5832.419,3,1,1,0.988,1.000,1.000,0.00,90.00,63.00,OPEN,0
5832.472,3,1,1,0.994,1.000,1.000,0.00,90.00,63.00,OPEN,0
5832.520,3,1,1,0.985,1.000,1.000,0.00,90.00,63.00,OPEN,0
5832.574,3,1,1,0.907,1.000,1.000,0.00,90.00,63.00,OPEN,0
5832.619,3,1,1,0.937,1.000,1.000,0.00,90.00,63.00,OPEN,0
5832.671,3,1,1,1.000,1.000,1.000,0.00,90.00,63.00,OPEN,0
5832.720,3,1,1,1.000,1.000,1.000,0.00,90.00,63.00,OPEN,0
5832.770,3,1,1,1.000,1.000,1.000,0.00,90.00,63.00,OPEN,0
5832.820,3,1,1,0.999,1.000,1.000,0.00,90.00,63.00,OPEN,0
5832.871,3,1,1,0.999,1.000,1.000,0.00,90.00,63.00,OPEN,0
5832.920,3,1,1,0.998,1.000,1.000,0.00,90.00,63.00,OPEN,0
5832.970,0,1,1,0.998,1.000,1.000,0.00,90.00,63.00,OPEN,0
5833.020,0,1,1,0.997,1.000,1.000,0.00,90.00,63.00,OPEN,0
5833.071,0,1,1,0.996,1.000,1.000,0.00,90.00,63.00,OPEN,0
5833.120,0,1,1,0.991,1.000,1.000,0.00,90.00,63.00,OPEN,0
5833.170,0,1,1,0.981,1.000,1.000,0.00,90.00,63.00,OPEN,0
5833.219,0,1,1,0.968,1.000,1.000,0.00,90.00,63.00,OPEN,0
5833.269,0,1,1,0.957,1.000,1.000,0.00,90.00,63.00,OPEN,0
5833.323,0,1,1,0.992,1.000,1.000,0.00,90.00,63.00,OPEN,0
5833.372,0,1,1,0.996,1.000,1.000,0.00,90.00,63.00,OPEN,0
5833.422,0,1,1,0.989,1.000,1.000,0.00,90.00,63.00,OPEN,0
5833.471,0,1,1,0.970,1.000,1.000,0.00,90.00,63.00,OPEN,0
5833.520,0,1,1,0.953,1.000,1.000,0.00,90.00,63.00,OPEN,0
5833.571,0,1,1,0.981,1.000,1.000,0.00,90.00,63.00,OPEN,0
5833.621,0,1,1,0.971,1.000,1.000,0.00,90.00,63.00,OPEN,0
5833.670,0,1,1,0.964,1.000,1.000,0.00,90.00,63.00,OPEN,0
5833.721,0,1,1,0.885,1.000,1.000,0.00,90.00,63.00,OPEN,0
5833.770,0,1,1,0.750,1.000,1.000,0.00,90.00,63.00,OPEN,0
5833.824,0,1,1,0.985,1.000,1.000,0.00,90.00,63.00,OPEN,0
5833.879,0,1,1,0.999,1.000,1.000,0.00,90.00,63.00,OPEN,0
5833.924,0,1,1,1.000,1.000,1.000,0.00,90.00,63.00,OPEN,0
5833.971,0,1,1,1.000,1.000,1.000,0.00,90.00,63.00,OPEN,0
5834.023,0,1,1,1.000,1.000,1.000,0.00,90.00,63.00,OPEN,0
5834.070,0,1,1,1.000,1.000,1.000,0.00,90.00,63.00,OPEN,0
5834.121,0,1,1,0.999,1.000,1.000,0.00,90.00,63.00,OPEN,0
5834.174,2,1,1,0.999,1.000,1.000,0.00,90.00,58.50,OPEN,1
5834.320,2,1,1,0.999,1.000,1.000,0.00,90.00,54.00,OPEN,1
5834.363,2,1,1,1.000,1.000,1.000,0.00,90.00,54.00,OPEN,0
5834.374,2,1,1,1.000,1.000,1.000,0.00,90.00,54.00,OPEN,0
5834.388,2,1,1,1.000,1.000,1.000,0.00,90.00,54.00,OPEN,0
5834.423,2,1,1,1.000,1.000,1.000,0.00,90.00,49.50,OPEN,1
5834.469,2,1,1,1.000,1.000,1.000,0.00,90.00,49.50,OPEN,0
5834.519,2,1,1,1.000,1.000,1.000,0.00,90.00,49.50,OPEN,0
5834.570,2,1,1,1.000,1.000,1.000,0.00,90.00,45.00,OPEN,1
5834.620,2,1,1,1.000,1.000,1.000,0.00,90.00,45.00,OPEN,0
5834.671,2,1,1,1.000,1.000,1.000,0.00,90.00,40.50,OPEN,1
5834.719,2,1,1,1.000,1.000,1.000,0.00,90.00,40.50,OPEN,0
5834.769,2,1,1,1.000,1.000,1.000,0.00,90.00,40.50,OPEN,0
5834.819,2,1,1,1.000,1.000,1.000,0.00,90.00,36.00,OPEN,1
5834.919,2,1,1,1.000,1.000,1.000,0.00,90.00,36.00,OPEN,0
5834.931,2,1,1,1.000,1.000,1.000,0.00,90.00,31.50,OPEN,1
5834.986,2,1,1,1.000,1.000,1.000,0.00,90.00,31.50,OPEN,0
5835.020,2,1,1,1.000,1.000,1.000,0.00,90.00,31.50,OPEN,0
5835.069,2,1,1,1.000,1.000,1.000,0.00,90.00,27.00,OPEN,1
5835.121,2,1,1,1.000,1.000,1.000,0.00,90.00,27.00,OPEN,0
5835.168,2,1,1,1.000,1.000,1.000,0.00,90.00,27.00,OPEN,0
5835.223,2,1,1,1.000,1.000,1.000,0.00,90.00,22.50,OPEN,1
5835.318,2,1,1,1.000,1.000,1.000,0.00,90.00,22.50,OPEN,0
5835.327,2,1,1,1.000,1.000,1.000,0.00,90.00,18.00,OPEN,1
5835.368,2,1,1,1.000,1.000,1.000,0.00,90.00,18.00,OPEN,0
5835.419,2,1,1,1.000,1.000,1.000,0.00,90.00,18.00,OPEN,0
5835.470,2,1,1,1.000,1.000,1.000,0.00,90.00,13.50,OPEN,1
5835.520,2,1,1,1.000,1.000,1.000,0.00,90.00,13.50,OPEN,0
5835.569,2,1,1,1.000,1.000,1.000,0.00,90.00,13.50,OPEN,0
5835.619,2,1,1,1.000,1.000,1.000,0.00,90.00,9.00,OPEN,1
5835.719,2,1,1,1.000,1.000,1.000,0.00,90.00,4.50,OPEN,1
5835.761,2,1,1,0.995,1.000,1.000,0.00,90.00,4.50,OPEN,0
5835.772,2,1,1,0.941,1.000,1.000,0.00,90.00,4.50,OPEN,0
5835.820,2,1,1,0.748,1.000,1.000,0.00,90.00,0.00,OPEN,1
5835.888,2,1,1,0.766,1.000,1.000,0.00,90.00,0.00,OPEN,0
5835.918,2,1,1,0.947,1.000,1.000,0.00,90.00,0.00,OPEN,0
5835.969,2,1,1,0.998,1.000,1.000,0.00,90.00,-4.50,OPEN,1
5836.018,2,1,1,1.000,1.000,1.000,0.00,90.00,-4.50,OPEN,0
5836.069,2,1,1,1.000,1.000,1.000,0.00,90.00,-4.50,OPEN,0
5836.119,2,1,1,1.000,1.000,1.000,0.00,90.00,-9.00,OPEN,1
5836.174,2,1,1,1.000,1.000,1.000,0.00,90.00,-9.00,OPEN,0
5836.219,0,1,1,1.000,1.000,1.000,0.00,90.00,-9.00,OPEN,0
5836.271,0,1,1,1.000,1.000,1.000,0.00,90.00,-9.00,OPEN,0
5836.319,0,1,1,1.000,1.000,1.000,0.00,90.00,-9.00,OPEN,0
5836.369,0,1,1,0.999,1.000,1.000,0.00,90.00,-9.00,OPEN,0
5836.419,0,1,1,0.997,1.000,1.000,0.00,90.00,-9.00,OPEN,0
5836.468,0,1,1,0.997,1.000,1.000,0.00,90.00,-9.00,OPEN,0
5836.518,0,1,1,0.999,1.000,1.000,0.00,90.00,-9.00,OPEN,0
5836.569,0,1,1,0.999,1.000,1.000,0.00,90.00,-9.00,OPEN,0
5836.618,0,1,1,1.000,1.000,1.000,0.00,90.00,-9.00,OPEN,0
5836.669,0,1,1,1.000,1.000,1.000,0.00,90.00,-9.00,OPEN,0
5836.719,0,1,1,1.000,1.000,1.000,0.00,90.00,-9.00,OPEN,0
5836.769,0,1,1,1.000,1.000,1.000,0.00,90.00,-9.00,OPEN,0
5836.820,0,1,1,1.000,1.000,1.000,0.00,90.00,-9.00,OPEN,0
5836.868,0,1,1,1.000,1.000,1.000,0.00,90.00,-9.00,OPEN,0
5836.918,0,1,1,1.000,1.000,1.000,0.00,90.00,-9.00,OPEN,0
5836.969,0,1,1,1.000,1.000,1.000,0.00,90.00,-9.00,OPEN,0
5837.018,0,1,1,1.000,1.000,1.000,0.00,90.00,-9.00,OPEN,0
5837.068,0,1,1,1.000,1.000,1.000,0.00,90.00,-9.00,OPEN,0
5837.118,0,1,1,1.000,1.000,1.000,0.00,90.00,-9.00,OPEN,0
5837.168,0,1,1,1.000,1.000,1.000,0.00,90.00,-9.00,OPEN,0
5837.218,0,1,1,1.000,1.000,1.000,0.00,90.00,-9.00,OPEN,0
5837.268,0,1,1,1.000,1.000,1.000,0.00,90.00,-9.00,OPEN,0
5837.319,0,1,1,1.000,1.000,1.000,0.00,90.00,-9.00,OPEN,0
5837.370,0,1,1,1.000,1.000,1.000,0.00,90.00,-9.00,OPEN,0
5837.418,0,1,1,1.000,1.000,1.000,0.00,90.00,-9.00,OPEN,0
5837.469,0,1,1,1.000,1.000,1.000,0.00,90.00,-9.00,OPEN,0
5837.518,0,1,1,1.000,1.000,1.000,0.00,90.00,-9.00,OPEN,0
5837.569,0,1,1,1.000,1.000,1.000,0.00,90.00,-9.00,OPEN,0
5837.619,0,1,1,1.000,1.000,1.000,0.00,90.00,-9.00,OPEN,0
5837.669,0,1,1,1.000,1.000,1.000,0.00,90.00,-9.00,OPEN,0
5837.719,0,1,1,1.000,1.000,1.000,0.00,90.00,-9.00,OPEN,0
5837.768,0,1,1,1.000,1.000,1.000,0.00,90.00,-9.00,OPEN,0
5837.819,0,1,1,1.000,1.000,1.000,0.00,90.00,-9.00,OPEN,0
5837.870,0,1,1,1.000,1.000,1.000,0.00,90.00,-9.00,OPEN,0
5837.919,0,1,1,1.000,1.000,1.000,0.00,90.00,-9.00,OPEN,0
5837.968,0,1,1,1.000,1.000,1.000,0.00,90.00,-9.00,OPEN,0
5838.018,0,1,1,1.000,1.000,1.000,0.00,90.00,-9.00,OPEN,0
5838.068,0,1,1,1.000,1.000,1.000,0.00,90.00,-9.00,OPEN,0
5838.119,0,1,1,1.000,1.000,1.000,0.00,90.00,-9.00,OPEN,0
5838.168,0,1,1,1.000,1.000,1.000,0.00,90.00,-9.00,OPEN,0
5838.219,0,1,1,1.000,1.000,1.000,0.00,90.00,-9.00,OPEN,0
5838.269,0,1,1,1.000,1.000,1.000,0.00,90.00,-9.00,OPEN,0
5838.318,0,1,1,1.000,1.000,1.000,0.00,90.00,-9.00,OPEN,0
5838.368,0,1,1,1.000,1.000,1.000,0.00,90.00,-9.00,OPEN,0
5838.420,0,1,1,1.000,1.000,1.000,0.00,90.00,-9.00,OPEN,0
5838.468,0,1,1,1.000,1.000,1.000,0.00,90.00,-9.00,OPEN,0
5838.519,0,1,1,1.000,1.000,1.000,0.00,90.00,-9.00,OPEN,0
5838.568,0,1,1,0.997,1.000,1.000,0.00,90.00,-9.00,OPEN,0
5838.619,0,1,1,0.552,1.000,1.000,0.00,90.00,-9.00,OPEN,0
5838.669,0,1,1,0.977,1.000,1.000,0.00,90.00,-9.00,OPEN,0
5838.720,0,1,1,0.998,1.000,1.000,0.00,90.00,-9.00,OPEN,0
5838.768,0,1,1,1.000,1.000,1.000,0.00,90.00,-9.00,OPEN,0
5838.818,0,1,1,1.000,1.000,1.000,0.00,90.00,-9.00,OPEN,0
5838.870,0,1,1,1.000,1.000,1.000,0.00,90.00,-9.00,OPEN,0
5838.919,0,1,1,1.000,1.000,1.000,0.00,90.00,-9.00,OPEN,0
5838.970,0,1,1,1.000,1.000,1.000,0.00,90.00,-9.00,OPEN,0
5839.019,3,1,1,1.000,1.000,1.000,0.00,90.00,-9.00,CLOSED,0
5839.169,3,1,1,1.000,1.000,1.000,0.00,90.00,-9.00,CLOSED,0
5839.179,3,1,1,1.000,1.000,1.000,0.00,90.00,-9.00,CLOSED,0
5839.187,3,1,1,1.000,1.000,1.000,0.00,90.00,-9.00,CLOSED,0
5839.220,3,1,1,1.000,1.000,1.000,0.00,90.00,-9.00,CLOSED,0
5839.268,3,1,1,1.000,1.000,1.000,0.00,90.00,-9.00,CLOSED,0
5839.320,3,1,1,1.000,1.000,1.000,0.00,90.00,-9.00,CLOSED,0
5839.369,3,1,1,1.000,1.000,1.000,0.00,90.00,-9.00,CLOSED,0
5839.418,3,1,1,1.000,1.000,1.000,0.00,90.00,-9.00,CLOSED,0
5839.470,3,1,1,1.000,1.000,1.000,0.00,90.00,-9.00,CLOSED,0
5839.519,3,1,1,1.000,1.000,1.000,0.00,90.00,-9.00,CLOSED,0
5839.567,3,1,1,1.000,1.000,1.000,0.00,90.00,-9.00,CLOSED,0
5839.618,3,1,1,1.000,1.000,1.000,0.00,90.00,-9.00,CLOSED,0
5839.668,3,1,1,1.000,1.000,1.000,0.00,90.00,-9.00,CLOSED,0
5839.719,3,1,1,1.000,1.000,1.000,0.00,90.00,-9.00,CLOSED,0
5839.770,3,1,1,1.000,1.000,1.000,0.00,90.00,-9.00,CLOSED,0
5839.819,3,1,1,1.000,1.000,1.000,0.00,90.00,-9.00,CLOSED,0
5839.868,3,1,1,1.000,1.000,1.000,0.00,90.00,-9.00,CLOSED,0
5839.918,3,1,1,1.000,1.000,1.000,0.00,90.00,-9.00,CLOSED,0
5839.970,3,1,1,0.997,1.000,1.000,0.00,90.00,-9.00,CLOSED,0
5840.020,3,1,1,0.778,1.000,1.000,0.00,90.00,-9.00,CLOSED,0
5840.068,3,1,1,0.879,1.000,1.000,0.00,90.00,-9.00,CLOSED,0
5840.118,3,1,1,0.992,1.000,1.000,0.00,90.00,-9.00,CLOSED,0
5840.169,3,1,1,0.996,1.000,1.000,0.00,90.00,-9.00,CLOSED,0
5840.219,3,1,1,0.998,1.000,1.000,0.00,90.00,-9.00,CLOSED,0
5840.269,3,1,1,0.977,1.000,1.000,0.00,90.00,-9.00,CLOSED,0
5840.318,3,1,1,0.809,1.000,1.000,0.00,90.00,-9.00,CLOSED,0
5840.368,3,1,1,0.996,1.000,1.000,0.00,90.00,-9.00,CLOSED,0
5840.418,3,1,1,1.000,1.000,1.000,0.00,90.00,-9.00,CLOSED,0
5840.468,3,1,1,1.000,1.000,1.000,0.00,90.00,-9.00,CLOSED,0
5840.519,3,1,1,1.000,1.000,1.000,0.00,90.00,-9.00,CLOSED,0
5840.569,3,1,1,1.000,1.000,1.000,0.00,90.00,-9.00,CLOSED,0
5840.618,3,1,1,1.000,1.000,1.000,0.00,90.00,-9.00,CLOSED,0
5840.668,3,1,1,1.000,1.000,1.000,0.00,90.00,-9.00,CLOSED,0
5840.718,0,1,1,1.000,1.000,1.000,0.00,90.00,-9.00,CLOSED,0
5840.769,0,1,1,1.000,1.000,1.000,0.00,90.00,-9.00,CLOSED,0
5840.819,0,1,1,1.000,1.000,1.000,0.00,90.00,-9.00,CLOSED,0
5840.868,0,1,1,1.000,1.000,1.000,0.00,90.00,-9.00,CLOSED,0
5840.919,0,1,1,1.000,1.000,1.000,0.00,90.00,-9.00,CLOSED,0
5840.969,0,1,1,1.000,1.000,1.000,0.00,90.00,-9.00,CLOSED,0
5841.018,0,1,1,1.000,1.000,1.000,0.00,90.00,-9.00,CLOSED,0
5841.071,0,1,1,1.000,1.000,1.000,0.00,90.00,-9.00,CLOSED,0
5841.119,0,1,1,1.000,1.000,1.000,0.00,90.00,-9.00,CLOSED,0
5841.168,0,1,1,1.000,1.000,1.000,0.00,90.00,-9.00,CLOSED,0
5841.218,0,1,1,1.000,1.000,1.000,0.00,90.00,-9.00,CLOSED,0
5841.268,0,1,1,1.000,1.000,1.000,0.00,90.00,-9.00,CLOSED,0
5841.318,0,1,1,1.000,1.000,1.000,0.00,90.00,-9.00,CLOSED,0
5841.368,0,1,1,1.000,1.000,1.000,0.00,90.00,-9.00,CLOSED,0
5841.418,0,1,1,1.000,1.000,1.000,0.00,90.00,-9.00,CLOSED,0
5841.468,0,1,1,1.000,1.000,1.000,0.00,90.00,-9.00,CLOSED,0
5841.521,0,1,1,1.000,1.000,1.000,0.00,90.00,-9.00,CLOSED,0
5841.569,0,1,1,1.000,1.000,1.000,0.00,90.00,-9.00,CLOSED,0
5841.620,0,1,1,1.000,1.000,1.000,0.00,90.00,-9.00,CLOSED,0
5841.669,0,1,1,1.000,1.000,1.000,0.00,90.00,-9.00,CLOSED,0
5841.718,0,1,1,1.000,1.000,1.000,0.00,90.00,-9.00,CLOSED,0
5841.768,0,1,1,1.000,1.000,1.000,0.00,90.00,-9.00,CLOSED,0
5841.818,0,1,1,1.000,1.000,1.000,0.00,90.00,-9.00,CLOSED,0
5841.868,0,1,1,1.000,1.000,1.000,0.00,90.00,-9.00,CLOSED,0
5841.919,0,1,1,1.000,1.000,1.000,0.00,90.00,-9.00,CLOSED,0
5841.969,0,1,1,1.000,1.000,1.000,0.00,90.00,-9.00,CLOSED,0
5842.018,0,1,1,1.000,1.000,1.000,0.00,90.00,-9.00,CLOSED,0
5842.069,0,1,1,1.000,1.000,1.000,0.00,90.00,-9.00,CLOSED,0
5842.120,0,1,1,1.000,1.000,1.000,0.00,90.00,-9.00,CLOSED,0
5842.169,0,1,1,1.000,1.000,1.000,0.00,90.00,-9.00,CLOSED,0
5842.218,0,1,1,1.000,1.000,1.000,0.00,90.00,-9.00,CLOSED,0
5842.269,0,1,1,1.000,1.000,1.000,0.00,90.00,-9.00,CLOSED,0
5842.320,0,1,1,1.000,1.000,1.000,0.00,90.00,-9.00,CLOSED,0
5842.368,0,1,1,1.000,1.000,1.000,0.00,90.00,-9.00,CLOSED,0
5842.418,0,1,1,1.000,1.000,1.000,0.00,90.00,-9.00,CLOSED,0
5842.469,0,1,1,1.000,1.000,1.000,0.00,90.00,-9.00,CLOSED,0
5842.520,0,1,1,1.000,1.000,1.000,0.00,90.00,-9.00,CLOSED,0
5842.569,0,1,1,1.000,1.000,1.000,0.00,90.00,-9.00,CLOSED,0
5842.619,0,1,1,1.000,1.000,1.000,0.00,90.00,-9.00,CLOSED,0
5842.670,0,1,1,1.000,1.000,1.000,0.00,90.00,-9.00,CLOSED,0
5842.719,0,1,1,1.000,1.000,1.000,0.00,90.00,-9.00,CLOSED,0
5842.768,0,1,1,1.000,1.000,1.000,0.00,90.00,-9.00,CLOSED,0
5842.818,0,1,1,1.000,1.000,0.999,0.00,90.00,-9.00,CLOSED,0
5842.869,0,1,1,1.000,1.000,0.999,0.00,90.00,-9.00,CLOSED,0
5842.918,0,1,1,1.000,1.000,1.000,0.00,90.00,-9.00,CLOSED,0
5842.969,0,1,1,0.999,1.000,1.000,0.00,90.00,-9.00,CLOSED,0
5843.018,0,1,1,0.999,1.000,1.000,0.00,90.00,-9.00,CLOSED,0
5843.069,0,1,1,0.997,1.000,1.000,0.00,90.00,-9.00,CLOSED,0
5843.120,0,1,1,0.950,1.000,1.000,0.00,90.00,-9.00,CLOSED,0
5843.169,0,1,1,0.943,1.000,1.000,0.00,90.00,-9.00,CLOSED,0
5843.221,0,1,1,0.992,1.000,1.000,0.00,90.00,-9.00,CLOSED,0
5843.268,0,1,1,1.000,1.000,1.000,0.00,90.00,-9.00,CLOSED,0
5843.318,0,1,1,1.000,1.000,1.000,0.00,90.00,-9.00,CLOSED,0
5843.368,0,1,1,1.000,1.000,1.000,0.00,90.00,-9.00,CLOSED,0
5843.418,0,1,1,1.000,1.000,1.000,0.00,90.00,-9.00,CLOSED,0
5843.469,0,1,1,1.000,1.000,1.000,0.00,90.00,-9.00,CLOSED,0
5843.519,0,1,1,1.000,1.000,1.000,0.00,90.00,-9.00,CLOSED,0
5843.570,0,1,1,1.000,1.000,1.000,0.00,90.00,-9.00,CLOSED,0
5843.619,3,1,1,1.000,1.000,1.000,0.00,90.00,-9.00,OPEN,0
5843.723,3,1,1,1.000,1.000,1.000,0.00,90.00,-9.00,OPEN,0
5843.733,3,1,1,1.000,1.000,1.000,0.00,90.00,-9.00,OPEN,0
5843.769,3,1,1,1.000,1.000,1.000,0.00,90.00,-9.00,OPEN,0
5843.819,3,1,1,1.000,1.000,1.000,0.00,90.00,-9.00,OPEN,0
5843.871,3,1,1,1.000,1.000,1.000,0.00,90.00,-9.00,OPEN,0
5843.920,3,1,1,1.000,1.000,1.000,0.00,90.00,-9.00,OPEN,0
5843.981,3,1,1,1.000,1.000,1.000,0.00,90.00,-9.00,OPEN,0
5844.023,3,1,1,1.000,1.000,1.000,0.00,90.00,-9.00,OPEN,0
5844.070,3,1,1,1.000,1.000,1.000,0.00,90.00,-9.00,OPEN,0
5844.119,3,1,1,1.000,1.000,1.000,0.00,90.00,-9.00,OPEN,0
5844.171,3,1,1,1.000,1.000,1.000,0.00,90.00,-9.00,OPEN,0
5844.220,3,1,1,1.000,1.000,1.000,0.00,90.00,-9.00,OPEN,0
5844.270,3,1,1,1.000,1.000,1.000,0.00,90.00,-9.00,OPEN,0
5844.320,3,1,1,1.000,1.000,1.000,0.00,90.00,-9.00,OPEN,0
5844.369,3,1,1,0.790,1.000,1.000,0.00,90.00,-9.00,OPEN,0
5844.420,3,1,1,0.997,1.000,1.000,0.00,90.00,-9.00,OPEN,0
5844.470,3,1,1,0.998,1.000,1.000,0.00,90.00,-9.00,OPEN,0
5844.520,3,1,1,0.954,1.000,1.000,0.00,90.00,-9.00,OPEN,0
5844.570,3,1,1,0.577,1.000,1.000,0.00,90.00,-9.00,OPEN,0
5844.620,3,1,1,0.994,1.000,1.000,0.00,90.00,-9.00,OPEN,0
5844.670,3,1,1,1.000,1.000,1.000,0.00,90.00,-9.00,OPEN,0
5844.720,3,1,1,1.000,1.000,1.000,0.00,90.00,-9.00,OPEN,0
5844.770,3,1,1,1.000,1.000,1.000,0.00,90.00,-9.00,OPEN,0
5844.820,3,1,1,1.000,1.000,1.000,0.00,90.00,-9.00,OPEN,0
5844.869,3,1,1,1.000,1.000,1.000,0.00,90.00,-9.00,OPEN,0
5844.920,3,1,1,1.000,1.000,1.000,0.00,90.00,-9.00,OPEN,0
5844.970,0,1,1,1.000,1.000,1.000,0.00,90.00,-9.00,OPEN,0
5845.019,0,1,1,1.000,1.000,1.000,0.00,90.00,-9.00,OPEN,0
5845.069,0,1,1,1.000,1.000,1.000,0.00,90.00,-9.00,OPEN,0
5845.120,0,1,1,1.000,1.000,1.000,0.00,90.00,-9.00,OPEN,0
5845.169,0,1,1,1.000,1.000,1.000,0.00,90.00,-9.00,OPEN,0
5845.220,0,1,1,1.000,1.000,1.000,0.00,90.00,-9.00,OPEN,0
5845.269,0,1,1,1.000,1.000,1.000,0.00,90.00,-9.00,OPEN,0
5845.319,0,1,1,1.000,1.000,1.000,0.00,90.00,-9.00,OPEN,0
5845.372,0,1,1,1.000,1.000,1.000,0.00,90.00,-9.00,OPEN,0
5845.420,0,1,1,1.000,1.000,1.000,0.00,90.00,-9.00,OPEN,0
5845.470,0,1,1,1.000,1.000,1.000,0.00,90.00,-9.00,OPEN,0
5845.520,0,1,1,0.990,1.000,1.000,0.00,90.00,-9.00,OPEN,0
5845.569,0,1,1,0.747,1.000,1.000,0.00,90.00,-9.00,OPEN,0
5845.620,0,1,1,0.832,1.000,1.000,0.00,90.00,-9.00,OPEN,0
5845.670,0,1,1,0.988,1.000,1.000,0.00,90.00,-9.00,OPEN,0
5845.720,0,1,1,0.998,1.000,1.000,0.00,90.00,-9.00,OPEN,0
5845.770,0,1,1,1.000,1.000,1.000,0.00,90.00,-9.00,OPEN,0
5845.821,0,1,1,1.000,1.000,1.000,0.00,90.00,-9.00,OPEN,0
5845.870,0,1,1,1.000,1.000,1.000,0.00,90.00,-9.00,OPEN,0
5845.919,0,1,1,0.999,1.000,1.000,0.00,90.00,-9.00,OPEN,0
5845.969,2,1,1,0.999,1.000,1.000,0.00,90.00,-13.50,OPEN,1
5846.122,2,1,1,0.998,1.000,1.000,0.00,90.00,-18.00,OPEN,1
5846.181,2,1,1,0.997,1.000,1.000,0.00,90.00,-18.00,OPEN,0
5846.187,2,1,1,0.998,1.000,1.000,0.00,90.00,-18.00,OPEN,0
5846.193,2,1,1,0.998,1.000,1.000,0.00,90.00,-18.00,OPEN,0
5846.221,2,1,1,0.999,1.000,1.000,0.00,90.00,-18.00,OPEN,0
5846.269,2,1,1,1.000,1.000,1.000,0.00,90.00,-22.50,OPEN,1
5846.321,2,1,1,1.000,1.000,1.000,0.00,90.00,-22.50,OPEN,0
5846.370,2,1,1,1.000,1.000,1.000,0.00,90.00,-27.00,OPEN,1
5846.421,2,1,1,1.000,1.000,1.000,0.00,90.00,-27.00,OPEN,0
5846.469,2,1,1,1.000,1.000,1.000,0.00,90.00,-27.00,OPEN,0
5846.520,2,1,1,1.000,1.000,1.000,0.00,90.00,-31.50,OPEN,1
5846.570,2,1,1,1.000,1.000,1.000,0.00,90.00,-31.50,OPEN,0
5846.620,2,1,1,1.000,1.000,1.000,0.00,90.00,-31.50,OPEN,0
5846.669,2,1,1,1.000,1.000,1.000,0.00,90.00,-36.00,OPEN,1
5846.720,2,1,1,1.000,1.000,1.000,0.00,90.00,-36.00,OPEN,0
5846.770,2,1,1,1.000,1.000,1.000,0.00,90.00,-40.50,OPEN,1
5846.820,2,1,1,1.000,1.000,1.000,0.00,90.00,-40.50,OPEN,0
5846.870,2,1,1,1.000,1.000,1.000,0.00,90.00,-45.00,OPEN,1
5846.923,2,1,1,1.000,1.000,1.000,0.00,90.00,-45.00,OPEN,0
5846.971,2,1,1,1.000,1.000,1.000,0.00,90.00,-49.50,OPEN,1
5847.021,2,1,1,1.000,1.000,1.000,0.00,90.00,-49.50,OPEN,0
5847.069,2,1,1,1.000,1.000,1.000,0.00,90.00,-49.50,OPEN,0
5847.120,2,1,1,1.000,1.000,1.000,0.00,90.00,-54.00,OPEN,1
5847.172,2,1,1,1.000,1.000,1.000,0.00,90.00,-54.00,OPEN,0
5847.218,2,1,1,1.000,1.000,1.000,0.00,90.00,-54.00,OPEN,0
5847.269,2,1,1,1.000,1.000,1.000,0.00,90.00,-58.50,OPEN,1
5847.320,2,1,1,1.000,1.000,1.000,0.00,90.00,-58.50,OPEN,0
5847.369,2,1,1,1.000,1.000,1.000,0.00,90.00,-63.00,OPEN,1
5847.419,2,1,1,0.796,1.000,1.000,0.00,90.00,-63.00,OPEN,0
5847.470,2,1,1,1.000,1.000,1.000,0.00,90.00,-67.50,OPEN,1
5847.521,2,1,1,1.000,1.000,1.000,0.00,90.00,-67.50,OPEN,0
5847.569,2,1,1,1.000,1.000,1.000,0.00,90.00,-67.50,OPEN,0
5847.620,2,1,1,1.000,1.000,1.000,0.00,90.00,-72.00,OPEN,1
5847.672,2,1,1,1.000,1.000,1.000,0.00,90.00,-72.00,OPEN,0
5847.720,2,1,1,1.000,1.000,1.000,0.00,90.00,-76.50,OPEN,1
5847.779,2,1,1,1.000,1.000,1.000,0.00,90.00,-76.50,OPEN,0
5847.820,0,1,1,1.000,1.000,1.000,0.00,90.00,-76.50,OPEN,0
5847.869,0,1,1,1.000,1.000,1.000,0.00,90.00,-76.50,OPEN,0
5847.920,0,1,1,1.000,1.000,1.000,0.00,90.00,-76.50,OPEN,0
5847.971,0,1,1,1.000,1.000,1.000,0.00,90.00,-76.50,OPEN,0
5848.019,0,1,1,1.000,1.000,1.000,0.00,90.00,-76.50,OPEN,0
5848.069,0,1,1,1.000,1.000,1.000,0.00,90.00,-76.50,OPEN,0
5848.120,0,1,1,1.000,1.000,1.000,0.00,90.00,-76.50,OPEN,0
5848.169,0,1,1,1.000,1.000,1.000,0.00,90.00,-76.50,OPEN,0
5848.220,0,1,1,1.000,1.000,1.000,0.00,90.00,-76.50,OPEN,0
5848.269,0,1,1,1.000,1.000,1.000,0.00,90.00,-76.50,OPEN,0
5848.320,0,1,1,1.000,1.000,1.000,0.00,90.00,-76.50,OPEN,0
5848.371,0,1,1,0.999,1.000,1.000,0.00,90.00,-76.50,OPEN,0
5848.421,0,1,1,0.987,1.000,1.000,0.00,90.00,-76.50,OPEN,0
5848.469,0,1,1,0.842,1.000,1.000,0.00,90.00,-76.50,OPEN,0
5848.521,0,1,1,0.806,1.000,1.000,0.00,90.00,-76.50,OPEN,0
5848.571,0,1,1,0.981,1.000,1.000,0.00,90.00,-76.50,OPEN,0
5848.620,0,1,1,0.993,1.000,1.000,0.00,90.00,-76.50,OPEN,0
5848.670,0,1,1,0.943,1.000,1.000,0.00,90.00,-76.50,OPEN,0
5848.721,0,1,1,0.694,1.000,1.000,0.00,90.00,-76.50,OPEN,0
5848.769,0,1,1,0.982,1.000,1.000,0.00,90.00,-76.50,OPEN,0
5848.820,0,1,1,0.996,1.000,1.000,0.00,90.00,-76.50,OPEN,0
5848.870,0,1,1,0.997,1.000,1.000,0.00,90.00,-76.50,OPEN,0
5848.919,0,1,1,0.996,1.000,1.000,0.00,90.00,-76.50,OPEN,0
5848.969,0,1,1,0.994,1.000,1.000,0.00,90.00,-76.50,OPEN,0
5849.020,0,1,1,0.996,1.000,1.000,0.00,90.00,-76.50,OPEN,0
5849.070,0,1,1,0.997,1.000,1.000,0.00,90.00,-76.50,OPEN,0
5849.120,3,1,1,0.995,1.000,1.000,0.00,90.00,-76.50,CLOSED,0
5849.294,3,1,1,0.973,1.000,1.000,0.00,90.00,-76.50,CLOSED,0
5849.305,3,1,1,0.752,1.000,1.000,0.00,90.00,-76.50,CLOSED,0
5849.313,3,1,1,0.917,1.000,1.000,0.00,90.00,-76.50,CLOSED,0
5849.320,3,1,1,0.994,1.000,1.000,0.00,90.00,-76.50,CLOSED,0
5849.369,3,1,1,0.999,1.000,1.000,0.00,90.00,-76.50,CLOSED,0
5849.419,3,1,1,1.000,1.000,1.000,0.00,90.00,-76.50,CLOSED,0
5849.470,3,1,1,1.000,1.000,1.000,0.00,90.00,-76.50,CLOSED,0
5849.522,3,1,1,1.000,1.000,1.000,0.00,90.00,-76.50,CLOSED,0
5849.575,3,1,1,0.999,1.000,1.000,0.00,90.00,-76.50,CLOSED,0
5849.619,3,1,1,0.998,1.000,1.000,0.00,90.00,-76.50,CLOSED,0
5849.669,3,1,1,0.990,1.000,1.000,0.00,90.00,-76.50,CLOSED,0
5849.719,3,1,1,0.977,1.000,1.000,0.00,90.00,-76.50,CLOSED,0
5849.769,1,1,1,0.943,1.000,1.000,0.00,90.00,-72.00,CLOSED,1
5849.851,1,1,1,0.913,1.000,1.000,0.00,90.00,-72.00,CLOSED,0
5849.870,1,1,1,0.888,1.000,1.000,0.00,90.00,-67.50,CLOSED,1
5849.923,1,1,1,0.873,1.000,1.000,0.00,90.00,-67.50,CLOSED,0
5849.971,1,1,1,0.913,1.000,1.000,0.00,90.00,-63.00,CLOSED,1
5850.021,1,1,1,0.936,1.000,1.000,0.00,90.00,-63.00,CLOSED,0
5850.075,1,1,1,0.943,1.000,1.000,0.00,90.00,-58.50,CLOSED,1
5850.124,1,1,1,0.951,1.000,1.000,0.00,90.00,-58.50,CLOSED,0
5850.171,1,1,1,0.961,1.000,1.000,0.00,90.00,-58.50,CLOSED,0
5850.219,1,1,1,0.981,1.000,1.000,0.00,90.00,-54.00,CLOSED,1
5850.272,1,1,1,0.992,1.000,1.000,0.00,90.00,-54.00,CLOSED,0
5850.322,1,1,1,0.997,1.000,1.000,0.00,90.00,-49.50,CLOSED,1
5850.376,1,1,1,0.999,1.000,1.000,0.00,90.00,-49.50,CLOSED,0
5850.427,1,1,1,1.000,1.000,1.000,0.00,90.00,-45.00,CLOSED,1
5850.473,1,1,1,1.000,1.000,1.000,0.00,90.00,-45.00,CLOSED,0
5850.520,1,1,1,1.000,1.000,1.000,0.00,90.00,-45.00,CLOSED,0
5850.570,1,1,1,1.000,1.000,1.000,0.00,90.00,-40.50,CLOSED,1
5850.632,1,1,1,1.000,1.000,1.000,0.00,90.00,-40.50,CLOSED,0
5850.670,1,1,1,0.909,1.000,1.000,0.00,90.00,-36.00,CLOSED,1
5850.720,1,1,1,0.687,1.000,1.000,0.00,90.00,-36.00,CLOSED,0
5850.770,1,1,1,0.948,1.000,0.999,0.00,90.00,-36.00,CLOSED,0
5850.820,1,1,1,0.983,1.000,0.999,0.00,90.00,-31.50,CLOSED,1
5850.870,1,1,1,0.988,1.000,0.998,0.00,90.00,-31.50,CLOSED,0
5850.921,1,1,1,0.991,1.000,0.998,0.00,90.00,-27.00,CLOSED,1
5850.980,1,1,1,0.987,1.000,0.998,0.00,90.00,-27.00,CLOSED,0
5851.020,1,1,1,0.966,1.000,0.998,0.00,90.00,-27.00,CLOSED,0
5851.070,1,1,1,0.879,1.000,0.998,0.00,90.00,-22.50,CLOSED,1
5851.122,1,1,1,0.555,1.000,0.999,0.00,90.00,-22.50,CLOSED,0
5851.172,1,1,1,0.750,1.000,0.999,0.00,90.00,-18.00,CLOSED,1
5851.276,3,1,1,0.944,1.000,0.999,0.00,90.00,-18.00,OPEN,0
5851.373,3,1,1,0.966,1.000,0.999,0.00,90.00,-18.00,OPEN,0
5851.380,3,1,1,0.992,1.000,0.999,0.00,90.00,-18.00,OPEN,0
5851.388,3,1,1,0.996,1.000,0.998,0.00,90.00,-18.00,OPEN,0
5851.419,3,1,1,0.998,1.000,0.995,0.00,90.00,-18.00,OPEN,0
