t,hand,elbow,shoulder,p_hand,p_elbow,p_shoulder,J2,J3,J6,grip_state,cmd_sent
667543.480,0,0,0,0.981,1.000,0.999,-90.00,180.00,0.00,OPEN,0
667543.494,0,0,0,0.997,1.000,0.999,-90.00,180.00,0.00,OPEN,0
667543.498,0,0,0,1.000,1.000,0.998,-90.00,180.00,0.00,OPEN,0
667543.502,0,0,0,1.000,1.000,0.999,-90.00,180.00,0.00,OPEN,0
667543.507,0,0,0,1.000,1.000,0.999,-90.00,180.00,0.00,OPEN,0
667543.511,0,0,0,1.000,1.000,0.999,-90.00,180.00,0.00,OPEN,0
667543.515,0,0,0,1.000,1.000,0.999,-90.00,180.00,0.00,OPEN,0
667543.519,0,0,0,1.000,1.000,0.999,-90.00,180.00,0.00,OPEN,0
667543.522,0,0,0,1.000,1.000,0.999,-90.00,180.00,0.00,OPEN,0
667543.525,0,0,0,1.000,1.000,0.999,-90.00,180.00,0.00,OPEN,0
667543.529,0,0,0,1.000,1.000,0.999,-90.00,180.00,0.00,OPEN,0
667543.533,0,0,0,1.000,1.000,0.998,-90.00,180.00,0.00,OPEN,0
667543.538,0,0,0,1.000,1.000,0.998,-90.00,180.00,0.00,OPEN,0
667543.541,0,0,0,1.000,1.000,0.998,-90.00,180.00,0.00,OPEN,0
667543.544,0,0,0,1.000,1.000,0.996,-90.00,180.00,0.00,OPEN,0
667543.547,0,0,0,1.000,1.000,0.995,-90.00,180.00,0.00,OPEN,0
667543.551,0,0,0,1.000,1.000,0.997,-90.00,180.00,0.00,OPEN,0
667543.554,0,0,0,1.000,1.000,0.996,-90.00,180.00,0.00,OPEN,0
667543.557,0,0,0,1.000,1.000,0.997,-90.00,180.00,0.00,OPEN,0
667543.560,0,0,0,1.000,1.000,0.997,-90.00,180.00,0.00,OPEN,0
667543.564,0,0,0,1.000,1.000,0.992,-90.00,180.00,0.00,OPEN,0
667543.567,0,0,0,1.000,1.000,0.988,-90.00,180.00,0.00,OPEN,0
667543.570,0,0,0,1.000,1.000,0.972,-90.00,180.00,0.00,OPEN,0
667543.573,0,0,0,1.000,1.000,0.994,-90.00,180.00,0.00,OPEN,0
667543.577,0,0,0,1.000,1.000,0.996,-90.00,180.00,0.00,OPEN,0
667543.580,0,0,0,1.000,1.000,0.993,-90.00,180.00,0.00,OPEN,0
667543.583,0,0,0,1.000,1.000,0.994,-90.00,180.00,0.00,OPEN,0
667543.587,0,0,0,1.000,1.000,0.993,-90.00,180.00,0.00,OPEN,0
667543.591,0,0,0,1.000,1.000,0.994,-90.00,180.00,0.00,OPEN,0
667543.596,0,0,0,1.000,1.000,0.985,-90.00,180.00,0.00,OPEN,0
667543.599,0,0,0,1.000,1.000,0.889,-90.00,180.00,0.00,OPEN,0
667543.603,0,0,0,1.000,1.000,0.814,-90.00,180.00,0.00,OPEN,0
667543.606,0,0,0,1.000,1.000,0.943,-90.00,180.00,0.00,OPEN,0
667543.609,0,0,0,1.000,1.000,0.984,-90.00,180.00,0.00,OPEN,0
667543.612,0,0,0,1.000,1.000,0.991,-90.00,180.00,0.00,OPEN,0
667543.616,0,0,0,1.000,1.000,0.992,-90.00,180.00,0.00,OPEN,0
667543.619,0,0,0,1.000,1.000,0.995,-90.00,180.00,0.00,OPEN,0
667543.623,0,0,0,1.000,1.000,0.996,-90.00,180.00,0.00,OPEN,0
667543.626,0,0,0,1.000,1.000,0.998,-90.00,180.00,0.00,OPEN,0
667543.630,0,0,0,1.000,1.000,0.998,-90.00,180.00,0.00,OPEN,0
667543.633,0,0,0,1.000,1.000,0.997,-90.00,180.00,0.00,OPEN,0
667543.636,0,0,0,1.000,1.000,0.994,-90.00,180.00,0.00,OPEN,0
667543.639,0,0,0,1.000,1.000,0.994,-90.00,180.00,0.00,OPEN,0
667543.643,0,0,0,1.000,1.000,0.993,-90.00,180.00,0.00,OPEN,0
667543.646,0,0,0,1.000,1.000,0.989,-90.00,180.00,0.00,OPEN,0
667543.649,0,0,0,1.000,1.000,0.981,-90.00,180.00,0.00,OPEN,0
667543.652,0,0,0,1.000,1.000,0.978,-90.00,180.00,0.00,OPEN,0
667543.656,0,0,0,1.000,1.000,0.983,-90.00,180.00,0.00,OPEN,0
667543.660,0,0,0,1.000,1.000,0.993,-90.00,180.00,0.00,OPEN,0
667543.664,0,0,0,1.000,1.000,0.992,-90.00,180.00,0.00,OPEN,0
667543.668,0,0,0,1.000,1.000,0.992,-90.00,180.00,0.00,OPEN,0
667543.671,0,0,0,1.000,1.000,0.989,-90.00,180.00,0.00,OPEN,0
667543.674,0,0,0,1.000,1.000,0.988,-90.00,180.00,0.00,OPEN,0
667543.677,0,0,0,1.000,1.000,0.957,-90.00,180.00,0.00,OPEN,0
667543.681,0,0,0,1.000,1.000,0.920,-90.00,180.00,0.00,OPEN,0
667543.684,0,0,0,1.000,1.000,0.942,-90.00,180.00,0.00,OPEN,0
667543.687,0,0,0,1.000,1.000,0.936,-90.00,180.00,0.00,OPEN,0
667543.690,0,0,0,1.000,1.000,0.935,-90.00,180.00,0.00,OPEN,0
667543.694,0,0,0,1.000,1.000,0.911,-90.00,180.00,0.00,OPEN,0
667543.698,0,0,0,1.000,1.000,0.908,-90.00,180.00,0.00,OPEN,0
667543.702,0,0,0,1.000,1.000,0.968,-90.00,180.00,0.00,OPEN,0
667543.706,0,0,0,1.000,1.000,0.969,-90.00,180.00,0.00,OPEN,0
667543.710,0,0,0,1.000,1.000,0.981,-90.00,180.00,0.00,OPEN,0
667543.713,0,0,0,1.000,1.000,0.995,-90.00,180.00,0.00,OPEN,0
667543.717,0,0,0,1.000,1.000,0.996,-90.00,180.00,0.00,OPEN,0
667543.720,0,0,0,1.000,1.000,0.996,-90.00,180.00,0.00,OPEN,0
667543.724,0,0,0,1.000,1.000,0.994,-90.00,180.00,0.00,OPEN,0
667543.727,0,0,0,1.000,1.000,0.990,-90.00,180.00,0.00,OPEN,0
667543.731,0,0,0,1.000,1.000,0.986,-90.00,180.00,0.00,OPEN,0
667543.735,0,0,0,1.000,1.000,0.987,-90.00,180.00,0.00,OPEN,0
667543.739,0,0,0,1.000,1.000,0.982,-90.00,180.00,0.00,OPEN,0
667543.742,0,0,0,1.000,1.000,0.978,-90.00,180.00,0.00,OPEN,0
667543.746,0,0,0,1.000,1.000,0.983,-90.00,180.00,0.00,OPEN,0
667543.750,0,0,0,1.000,1.000,0.988,-90.00,180.00,0.00,OPEN,0
667543.754,0,0,0,1.000,1.000,0.994,-90.00,180.00,0.00,OPEN,0
667543.758,0,0,0,1.000,1.000,0.994,-90.00,180.00,0.00,OPEN,0
667543.761,0,0,0,1.000,1.000,0.990,-90.00,180.00,0.00,OPEN,0
667543.765,0,0,0,1.000,1.000,0.991,-90.00,180.00,0.00,OPEN,0
667543.768,0,0,0,1.000,1.000,0.989,-90.00,180.00,0.00,OPEN,0
667543.771,0,0,0,1.000,1.000,0.986,-90.00,180.00,0.00,OPEN,0
667543.774,0,0,0,1.000,1.000,0.985,-90.00,180.00,0.00,OPEN,0
667543.778,0,0,0,1.000,1.000,0.981,-90.00,180.00,0.00,OPEN,0
667543.783,0,0,0,1.000,1.000,0.979,-90.00,180.00,0.00,OPEN,0
667543.786,0,0,0,1.000,1.000,0.988,-90.00,180.00,0.00,OPEN,0
667543.789,0,0,0,1.000,1.000,0.987,-90.00,180.00,0.00,OPEN,0
667543.793,0,0,0,1.000,1.000,0.987,-90.00,180.00,0.00,OPEN,0
667543.796,0,0,0,1.000,1.000,0.987,-90.00,180.00,0.00,OPEN,0
667543.799,0,0,0,1.000,1.000,0.990,-90.00,180.00,0.00,OPEN,0
667543.802,0,0,0,1.000,1.000,0.994,-90.00,180.00,0.00,OPEN,0
667543.805,0,0,0,1.000,1.000,0.989,-90.00,180.00,0.00,OPEN,0
667543.809,0,0,0,1.000,1.000,0.987,-90.00,180.00,0.00,OPEN,0
667543.812,0,0,0,1.000,1.000,0.987,-90.00,180.00,0.00,OPEN,0
667543.816,0,0,0,1.000,1.000,0.990,-90.00,180.00,0.00,OPEN,0
667543.819,0,0,0,1.000,1.000,0.981,-90.00,180.00,0.00,OPEN,0
667543.824,0,0,0,1.000,1.000,0.979,-90.00,180.00,0.00,OPEN,0
667543.828,0,0,0,1.000,1.000,0.985,-90.00,180.00,0.00,OPEN,0
667543.832,0,0,0,1.000,1.000,1.000,-90.00,180.00,0.00,OPEN,0
667543.835,0,0,0,1.000,1.000,1.000,-90.00,180.00,0.00,OPEN,0
667543.839,0,0,0,1.000,1.000,1.000,-90.00,180.00,0.00,OPEN,0
667543.842,0,0,0,1.000,1.000,1.000,-90.00,180.00,0.00,OPEN,0
667543.846,0,0,0,1.000,1.000,1.000,-90.00,180.00,0.00,OPEN,0
667543.850,0,0,0,1.000,1.000,1.000,-90.00,180.00,0.00,OPEN,0
667543.854,0,0,0,1.000,1.000,1.000,-90.00,180.00,0.00,OPEN,0
667543.857,0,0,0,1.000,1.000,1.000,-90.00,180.00,0.00,OPEN,0
667543.861,0,0,0,1.000,1.000,1.000,-90.00,180.00,0.00,OPEN,0
667543.864,0,0,0,1.000,1.000,1.000,-90.00,180.00,0.00,OPEN,0
667543.868,0,0,0,1.000,1.000,1.000,-90.00,180.00,0.00,OPEN,0
667543.871,0,0,0,1.000,1.000,1.000,-90.00,180.00,0.00,OPEN,0
667543.875,0,0,0,1.000,1.000,1.000,-90.00,180.00,0.00,OPEN,0
667543.880,0,0,0,1.000,1.000,1.000,-90.00,180.00,0.00,OPEN,0
667543.884,0,0,0,1.000,1.000,1.000,-90.00,180.00,0.00,OPEN,0
667543.889,0,0,0,1.000,1.000,1.000,-90.00,180.00,0.00,OPEN,0
667543.895,0,0,0,1.000,1.000,1.000,-90.00,180.00,0.00,OPEN,0
667543.899,0,0,0,1.000,1.000,1.000,-90.00,180.00,0.00,OPEN,0
667543.903,0,0,0,1.000,1.000,0.924,-90.00,180.00,0.00,OPEN,0
667543.907,0,0,0,1.000,1.000,0.700,-90.00,180.00,0.00,OPEN,0
667543.911,0,0,0,1.000,1.000,0.790,-90.00,180.00,0.00,OPEN,0
667543.915,0,0,0,1.000,1.000,1.000,-90.00,180.00,0.00,OPEN,0
667543.918,0,0,0,1.000,1.000,1.000,-90.00,180.00,0.00,OPEN,0
667543.922,0,0,0,1.000,1.000,1.000,-90.00,180.00,0.00,OPEN,0
667543.925,0,0,0,0.773,1.000,1.000,-90.00,180.00,0.00,OPEN,0
667543.929,0,0,0,1.000,1.000,1.000,-90.00,180.00,0.00,OPEN,0
667543.933,0,0,0,1.000,1.000,1.000,-90.00,180.00,0.00,OPEN,0
667543.937,0,0,0,1.000,1.000,1.000,-90.00,180.00,0.00,OPEN,0
667543.940,0,0,0,1.000,1.000,1.000,-90.00,180.00,0.00,OPEN,0
667543.943,0,0,0,1.000,1.000,1.000,-90.00,180.00,0.00,OPEN,0
667543.946,0,0,0,1.000,1.000,1.000,-90.00,180.00,0.00,OPEN,0
667543.950,0,0,0,1.000,0.522,0.982,-90.00,180.00,0.00,OPEN,0
667543.953,0,0,0,1.000,0.998,0.732,-90.00,180.00,0.00,OPEN,0
667543.956,0,0,0,1.000,1.000,0.598,-90.00,180.00,0.00,OPEN,0
667543.960,0,0,0,1.000,1.000,0.546,-90.00,180.00,0.00,OPEN,0
667543.963,0,0,0,1.000,1.000,0.600,-90.00,180.00,0.00,OPEN,0
667543.967,0,0,0,1.000,1.000,0.996,-90.00,180.00,0.00,OPEN,0
667543.970,0,0,0,1.000,1.000,0.976,-90.00,180.00,0.00,OPEN,0
667543.976,0,0,0,1.000,1.000,0.959,-90.00,180.00,0.00,OPEN,0
667543.980,0,0,0,1.000,1.000,0.984,-90.00,180.00,0.00,OPEN,0
667543.983,0,0,0,1.000,0.992,0.988,-90.00,180.00,0.00,OPEN,0
667543.986,0,0,0,1.000,0.973,0.978,-90.00,180.00,0.00,OPEN,0
667543.990,0,0,0,1.000,0.743,0.999,-90.00,180.00,0.00,OPEN,0
667543.994,0,0,0,1.000,1.000,1.000,-90.00,180.00,0.00,OPEN,0
667543.998,0,0,0,1.000,1.000,0.995,-90.00,180.00,0.00,OPEN,0
667544.003,0,0,0,1.000,0.810,0.803,-90.00,180.00,0.00,OPEN,0
667544.008,0,0,0,1.000,0.977,0.574,-90.00,180.00,0.00,OPEN,0
667544.013,0,0,0,1.000,0.949,0.637,-90.00,180.00,0.00,OPEN,0
667544.017,0,0,0,1.000,0.778,0.794,-90.00,180.00,0.00,OPEN,0
667544.021,0,0,0,1.000,0.995,0.992,-90.00,180.00,0.00,OPEN,0
667544.025,0,0,0,1.000,1.000,1.000,-90.00,180.00,0.00,OPEN,0
667544.028,0,0,0,1.000,1.000,1.000,-90.00,180.00,0.00,OPEN,0
667544.032,0,0,0,1.000,1.000,1.000,-90.00,180.00,0.00,OPEN,0
667544.035,0,0,0,1.000,1.000,1.000,-90.00,180.00,0.00,OPEN,0
667544.038,0,0,0,1.000,1.000,1.000,-90.00,180.00,0.00,OPEN,0
667544.041,0,0,0,1.000,1.000,1.000,-90.00,180.00,0.00,OPEN,0
667544.045,0,0,0,1.000,1.000,1.000,-90.00,180.00,0.00,OPEN,0
667544.048,0,0,0,1.000,1.000,0.956,-90.00,180.00,0.00,OPEN,0
667544.051,0,0,0,1.000,1.000,0.562,-90.00,180.00,0.00,OPEN,0
667544.055,0,0,0,1.000,1.000,1.000,-90.00,180.00,0.00,OPEN,0
667544.058,0,0,0,1.000,1.000,1.000,-90.00,180.00,0.00,OPEN,0
667544.062,0,0,0,1.000,1.000,1.000,-90.00,180.00,0.00,OPEN,0
667544.066,0,0,0,1.000,1.000,1.000,-90.00,180.00,0.00,OPEN,0
667544.069,0,0,0,1.000,1.000,1.000,-90.00,180.00,0.00,OPEN,0
667544.072,0,0,0,1.000,1.000,1.000,-90.00,180.00,0.00,OPEN,0
667544.076,0,0,0,1.000,1.000,1.000,-90.00,180.00,0.00,OPEN,0
667544.079,0,0,0,1.000,1.000,1.000,-90.00,180.00,0.00,OPEN,0
667544.082,0,0,0,1.000,1.000,1.000,-90.00,180.00,0.00,OPEN,0
667544.086,0,0,0,1.000,1.000,1.000,-90.00,180.00,0.00,OPEN,0
667544.089,0,0,0,1.000,1.000,1.000,-90.00,180.00,0.00,OPEN,0
667544.093,0,0,0,1.000,1.000,1.000,-90.00,180.00,0.00,OPEN,0
667544.096,0,0,0,1.000,1.000,1.000,-90.00,180.00,0.00,OPEN,0
667544.100,0,0,0,1.000,1.000,1.000,-90.00,180.00,0.00,OPEN,0
667544.104,0,0,0,1.000,1.000,1.000,-90.00,180.00,0.00,OPEN,0
667544.108,0,0,0,1.000,1.000,1.000,-90.00,180.00,0.00,OPEN,0
667544.111,0,0,0,1.000,1.000,1.000,-90.00,180.00,0.00,OPEN,0
667544.115,0,0,0,1.000,0.999,1.000,-90.00,180.00,0.00,OPEN,0
667544.118,0,0,0,1.000,0.847,0.986,-90.00,180.00,0.00,OPEN,0
667544.121,0,0,0,1.000,1.000,0.759,-90.00,180.00,0.00,OPEN,0
667544.125,0,0,0,1.000,1.000,0.965,-90.00,180.00,0.00,OPEN,0
667544.128,0,0,0,1.000,1.000,0.994,-90.00,180.00,0.00,OPEN,0
667544.132,0,0,0,1.000,1.000,0.994,-90.00,180.00,0.00,OPEN,0
667544.136,0,0,0,1.000,1.000,0.993,-90.00,180.00,0.00,OPEN,0
667544.139,0,0,0,1.000,1.000,0.991,-90.00,180.00,0.00,OPEN,0
667544.143,0,0,0,1.000,1.000,0.987,-90.00,180.00,0.00,OPEN,0
667544.146,0,0,0,1.000,1.000,0.991,-90.00,180.00,0.00,OPEN,0
667544.150,0,0,0,1.000,1.000,0.995,-90.00,180.00,0.00,OPEN,0
667544.154,0,0,0,1.000,1.000,0.993,-90.00,180.00,0.00,OPEN,0
667544.157,0,0,0,1.000,1.000,0.985,-90.00,180.00,0.00,OPEN,0
667544.161,0,0,0,1.000,1.000,0.981,-90.00,180.00,0.00,OPEN,0
667544.164,0,0,0,1.000,1.000,0.991,-90.00,180.00,0.00,OPEN,0
667544.168,0,0,0,1.000,1.000,0.989,-90.00,180.00,0.00,OPEN,0
667544.172,0,0,0,1.000,1.000,0.980,-90.00,180.00,0.00,OPEN,0
667544.175,0,0,0,1.000,1.000,0.959,-90.00,180.00,0.00,OPEN,0
667544.178,0,0,0,1.000,1.000,0.587,-90.00,180.00,0.00,OPEN,0
667544.182,0,0,0,1.000,1.000,0.505,-90.00,180.00,0.00,OPEN,0
667544.186,0,0,0,1.000,1.000,0.514,-90.00,180.00,0.00,OPEN,0
667544.189,0,0,0,1.000,1.000,0.504,-90.00,180.00,0.00,OPEN,0
667544.193,0,0,0,1.000,1.000,0.527,-90.00,180.00,0.00,OPEN,0
667544.197,0,0,0,1.000,1.000,0.761,-90.00,180.00,0.00,OPEN,0
667544.202,0,0,0,1.000,1.000,0.892,-90.00,180.00,0.00,OPEN,0
667544.206,0,0,0,1.000,1.000,0.929,-90.00,180.00,0.00,OPEN,0
667544.212,0,0,0,1.000,1.000,0.940,-90.00,180.00,0.00,OPEN,0
667544.216,0,0,0,1.000,1.000,0.913,-90.00,180.00,0.00,OPEN,0
667544.220,0,0,0,1.000,1.000,0.912,-90.00,180.00,0.00,OPEN,0
667544.223,0,0,0,1.000,1.000,0.848,-90.00,180.00,0.00,OPEN,0
667544.226,0,0,0,1.000,1.000,0.874,-90.00,180.00,0.00,OPEN,0
667544.230,0,0,0,1.000,1.000,0.876,-90.00,180.00,0.00,OPEN,0
667544.234,0,0,0,1.000,1.000,0.909,-90.00,180.00,0.00,OPEN,0
667544.237,0,0,0,1.000,1.000,0.925,-90.00,180.00,0.00,OPEN,0
667544.241,0,0,0,1.000,1.000,0.970,-90.00,180.00,0.00,OPEN,0
667544.244,0,0,0,1.000,1.000,0.980,-90.00,180.00,0.00,OPEN,0
667544.248,0,0,0,1.000,1.000,0.982,-90.00,180.00,0.00,OPEN,0
667544.252,0,0,0,1.000,1.000,0.990,-90.00,180.00,0.00,OPEN,0
667544.255,0,0,0,1.000,1.000,0.993,-90.00,180.00,0.00,OPEN,0
667544.259,0,0,0,1.000,1.000,0.991,-90.00,180.00,0.00,OPEN,0
667544.262,0,0,0,1.000,1.000,0.993,-90.00,180.00,0.00,OPEN,0
667544.265,0,0,0,1.000,1.000,0.995,-90.00,180.00,0.00,OPEN,0
667544.269,0,0,0,1.000,1.000,0.995,-90.00,180.00,0.00,OPEN,0
667544.272,0,0,0,1.000,1.000,0.996,-90.00,180.00,0.00,OPEN,0
667544.276,0,0,0,1.000,1.000,0.997,-90.00,180.00,0.00,OPEN,0
667544.280,0,0,0,1.000,1.000,0.988,-90.00,180.00,0.00,OPEN,0
667544.283,0,0,0,1.000,1.000,0.949,-90.00,180.00,0.00,OPEN,0
667544.287,0,0,0,1.000,1.000,0.769,-90.00,180.00,0.00,OPEN,0
667544.290,0,0,0,1.000,1.000,0.682,-90.00,180.00,0.00,OPEN,0
667544.294,0,0,0,1.000,1.000,0.598,-90.00,180.00,0.00,OPEN,0
667544.297,0,0,0,1.000,1.000,0.619,-90.00,180.00,0.00,OPEN,0
667544.301,0,0,0,1.000,1.000,0.518,-90.00,180.00,0.00,OPEN,0
667544.305,0,0,0,1.000,1.000,0.527,-90.00,180.00,0.00,OPEN,0
667544.309,0,0,0,1.000,1.000,0.560,-90.00,180.00,0.00,OPEN,0
667544.312,0,0,0,1.000,1.000,0.534,-90.00,180.00,0.00,OPEN,0
667544.316,0,0,0,1.000,1.000,0.687,-90.00,180.00,0.00,OPEN,0
667544.320,0,0,0,1.000,1.000,0.702,-90.00,180.00,0.00,OPEN,0
667544.324,0,0,0,1.000,1.000,0.818,-90.00,180.00,0.00,OPEN,0
667544.328,0,0,0,1.000,1.000,0.739,-90.00,180.00,0.00,OPEN,0
667544.332,0,0,0,1.000,1.000,0.771,-90.00,180.00,0.00,OPEN,0
667544.335,0,0,0,1.000,1.000,0.750,-90.00,180.00,0.00,OPEN,0
667544.339,0,0,0,1.000,1.000,0.721,-90.00,180.00,0.00,OPEN,0
667544.342,0,0,0,1.000,1.000,0.617,-90.00,180.00,0.00,OPEN,0
667544.345,0,0,0,1.000,1.000,0.580,-90.00,180.00,0.00,OPEN,0
667544.349,0,0,0,1.000,1.000,0.666,-90.00,180.00,0.00,OPEN,0
667544.352,0,0,0,1.000,1.000,0.615,-90.00,180.00,0.00,OPEN,0
667544.356,0,0,0,1.000,1.000,0.527,-90.00,180.00,0.00,OPEN,0
667544.359,0,0,0,1.000,1.000,0.607,-90.00,180.00,0.00,OPEN,0
667544.363,0,0,0,1.000,1.000,0.608,-90.00,180.00,0.00,OPEN,0
667544.367,0,0,0,1.000,1.000,0.708,-90.00,180.00,0.00,OPEN,0
667544.371,0,0,0,1.000,1.000,0.855,-90.00,180.00,0.00,OPEN,0
667544.375,0,0,0,1.000,1.000,0.816,-90.00,180.00,0.00,OPEN,0
667544.379,0,0,0,1.000,1.000,0.858,-90.00,180.00,0.00,OPEN,0
667544.383,0,0,0,1.000,1.000,0.850,-90.00,180.00,0.00,OPEN,0
667544.387,0,0,0,1.000,1.000,0.653,-90.00,180.00,0.00,OPEN,0
667544.390,0,0,0,1.000,1.000,0.612,-90.00,180.00,0.00,OPEN,0
667544.394,0,0,0,1.000,1.000,0.638,-90.00,180.00,0.00,OPEN,0
667544.398,0,0,0,1.000,1.000,0.707,-90.00,180.00,0.00,OPEN,0
667544.402,0,0,0,1.000,1.000,0.766,-90.00,180.00,0.00,OPEN,0
667544.405,0,0,0,1.000,1.000,0.682,-90.00,180.00,0.00,OPEN,0
667544.409,0,0,0,1.000,1.000,0.505,-90.00,180.00,0.00,OPEN,0
667544.414,0,0,0,1.000,1.000,0.640,-90.00,180.00,0.00,OPEN,0
667544.418,0,0,0,1.000,1.000,0.733,-90.00,180.00,0.00,OPEN,0
667544.422,0,0,0,1.000,1.000,1.000,-90.00,180.00,0.00,OPEN,0
667544.425,0,0,0,1.000,1.000,1.000,-90.00,180.00,0.00,OPEN,0
667544.429,0,0,0,1.000,1.000,1.000,-90.00,180.00,0.00,OPEN,0
667544.435,0,0,0,1.000,1.000,1.000,-90.00,180.00,0.00,OPEN,0
667544.440,0,0,0,1.000,1.000,1.000,-90.00,180.00,0.00,OPEN,0
667544.446,0,0,0,1.000,1.000,1.000,-90.00,180.00,0.00,OPEN,0
667544.451,0,0,0,1.000,1.000,1.000,-90.00,180.00,0.00,OPEN,0
667544.455,0,0,0,1.000,1.000,1.000,-90.00,180.00,0.00,OPEN,0
667544.459,0,0,0,1.000,1.000,1.000,-90.00,180.00,0.00,OPEN,0
667544.463,0,0,0,1.000,1.000,1.000,-90.00,180.00,0.00,OPEN,0
667544.466,0,0,0,0.984,1.000,1.000,-90.00,180.00,0.00,OPEN,0
667544.470,0,0,0,0.985,1.000,1.000,-90.00,180.00,0.00,OPEN,0
667544.473,0,0,0,0.968,1.000,1.000,-90.00,180.00,0.00,OPEN,0
667544.477,0,0,0,0.966,1.000,1.000,-90.00,180.00,0.00,OPEN,0
667544.481,0,0,0,0.962,1.000,1.000,-90.00,180.00,0.00,OPEN,0
667544.484,0,0,0,0.957,1.000,1.000,-90.00,180.00,0.00,OPEN,0
667544.488,0,0,0,0.937,1.000,1.000,-90.00,180.00,0.00,OPEN,0
667544.491,0,0,0,0.984,1.000,1.000,-90.00,180.00,0.00,OPEN,0
667544.495,0,0,0,0.999,1.000,1.000,-90.00,180.00,0.00,OPEN,0
667544.498,0,0,0,1.000,1.000,1.000,-90.00,180.00,0.00,OPEN,0
667544.502,0,0,0,1.000,0.985,0.999,-90.00,180.00,0.00,OPEN,0
667544.505,0,0,0,1.000,1.000,1.000,-90.00,180.00,0.00,OPEN,0
667544.509,0,0,0,1.000,1.000,1.000,-90.00,180.00,0.00,OPEN,0
667544.513,0,0,0,1.000,0.997,1.000,-90.00,180.00,0.00,OPEN,0
667544.516,2,0,0,1.000,1.000,1.000,-90.00,180.00,-4.50,OPEN,1
667544.520,2,0,0,1.000,1.000,1.000,-90.00,180.00,-4.50,OPEN,0
667544.524,2,0,0,1.000,1.000,1.000,-90.00,180.00,-4.50,OPEN,0
667544.528,2,0,0,1.000,1.000,1.000,-90.00,180.00,-4.50,OPEN,0
667544.531,2,0,0,1.000,0.996,0.988,-90.00,180.00,-4.50,OPEN,0
667544.535,2,0,0,1.000,0.999,0.980,-90.00,180.00,-4.50,OPEN,0
667544.538,2,0,0,1.000,0.999,0.977,-90.00,180.00,-4.50,OPEN,0
667544.542,2,0,0,1.000,0.998,0.962,-90.00,180.00,-4.50,OPEN,0
667544.547,2,0,0,1.000,0.958,0.800,-90.00,180.00,-4.50,OPEN,0
667544.551,2,0,0,1.000,1.000,0.998,-90.00,180.00,-4.50,OPEN,0
667544.554,2,0,0,1.000,1.000,1.000,-90.00,180.00,-4.50,OPEN,0
667544.558,2,0,0,1.000,1.000,1.000,-90.00,180.00,-4.50,OPEN,0
667544.561,2,0,0,1.000,1.000,1.000,-90.00,180.00,-4.50,OPEN,0
667544.565,2,0,0,1.000,1.000,1.000,-90.00,180.00,-4.50,OPEN,0
667544.568,2,0,0,1.000,1.000,1.000,-90.00,180.00,-4.50,OPEN,0
667544.571,2,0,0,1.000,1.000,1.000,-90.00,180.00,-4.50,OPEN,0
667544.575,2,0,0,1.000,1.000,1.000,-90.00,180.00,-4.50,OPEN,0
667544.578,2,0,0,1.000,1.000,1.000,-90.00,180.00,-4.50,OPEN,0
667544.582,2,0,0,1.000,1.000,1.000,-90.00,180.00,-4.50,OPEN,0
667544.585,2,0,0,1.000,1.000,1.000,-90.00,180.00,-4.50,OPEN,0
667544.588,2,0,0,1.000,1.000,1.000,-90.00,180.00,-4.50,OPEN,0
667544.591,2,0,0,1.000,1.000,1.000,-90.00,180.00,-4.50,OPEN,0
667544.595,2,0,0,1.000,1.000,1.000,-90.00,180.00,-4.50,OPEN,0
667544.598,2,0,0,1.000,1.000,1.000,-90.00,180.00,-4.50,OPEN,0
667544.602,2,0,0,1.000,1.000,1.000,-90.00,180.00,-4.50,OPEN,0
667544.605,2,0,0,1.000,1.000,1.000,-90.00,180.00,-4.50,OPEN,0
667544.608,2,0,0,1.000,1.000,1.000,-90.00,180.00,-4.50,OPEN,0
667544.611,2,0,0,1.000,1.000,1.000,-90.00,180.00,-4.50,OPEN,0
667544.615,2,0,0,1.000,1.000,1.000,-90.00,180.00,-4.50,OPEN,0
667544.619,2,0,0,1.000,1.000,1.000,-90.00,180.00,-9.00,OPEN,1
667544.622,2,0,0,1.000,1.000,1.000,-90.00,180.00,-9.00,OPEN,0
667544.625,2,0,0,1.000,1.000,1.000,-90.00,180.00,-9.00,OPEN,0
667544.629,2,0,0,1.000,1.000,1.000,-90.00,180.00,-9.00,OPEN,0
667544.632,2,0,0,1.000,1.000,1.000,-90.00,180.00,-9.00,OPEN,0
667544.636,2,0,0,1.000,1.000,1.000,-90.00,180.00,-9.00,OPEN,0
667544.639,2,0,0,1.000,1.000,1.000,-90.00,180.00,-9.00,OPEN,0
667544.642,2,0,0,1.000,1.000,1.000,-90.00,180.00,-9.00,OPEN,0
667544.646,2,0,0,1.000,1.000,1.000,-90.00,180.00,-9.00,OPEN,0
667544.649,2,0,0,1.000,1.000,1.000,-90.00,180.00,-9.00,OPEN,0
667544.652,2,0,0,1.000,1.000,1.000,-90.00,180.00,-9.00,OPEN,0
667544.656,2,0,0,1.000,1.000,1.000,-90.00,180.00,-9.00,OPEN,0
667544.660,2,0,0,1.000,1.000,1.000,-90.00,180.00,-9.00,OPEN,0
667544.664,2,0,0,1.000,1.000,1.000,-90.00,180.00,-9.00,OPEN,0
667544.670,2,0,0,1.000,1.000,1.000,-90.00,180.00,-9.00,OPEN,0
667544.675,2,0,0,1.000,1.000,1.000,-90.00,180.00,-9.00,OPEN,0
667544.681,2,0,0,1.000,1.000,1.000,-90.00,180.00,-9.00,OPEN,0
667544.686,2,0,0,1.000,1.000,1.000,-90.00,180.00,-9.00,OPEN,0
667544.691,2,0,0,1.000,1.000,1.000,-90.00,180.00,-9.00,OPEN,0
667544.694,2,0,0,1.000,1.000,1.000,-90.00,180.00,-9.00,OPEN,0
667544.698,2,0,0,1.000,1.000,1.000,-90.00,180.00,-9.00,OPEN,0
667544.702,2,0,0,1.000,1.000,1.000,-90.00,180.00,-9.00,OPEN,0
667544.705,2,0,0,1.000,1.000,1.000,-90.00,180.00,-9.00,OPEN,0
667544.709,2,0,0,1.000,1.000,1.000,-90.00,180.00,-9.00,OPEN,0
667544.712,2,0,0,1.000,1.000,1.000,-90.00,180.00,-9.00,OPEN,0
667544.716,2,0,0,1.000,1.000,1.000,-90.00,180.00,-9.00,OPEN,0
667544.719,2,0,0,1.000,1.000,1.000,-90.00,180.00,-13.50,OPEN,1
667544.723,2,0,0,1.000,1.000,1.000,-90.00,180.00,-13.50,OPEN,0
667544.726,2,0,0,1.000,1.000,1.000,-90.00,180.00,-13.50,OPEN,0
667544.730,2,0,0,1.000,1.000,1.000,-90.00,180.00,-13.50,OPEN,0
667544.734,2,0,0,1.000,1.000,1.000,-90.00,180.00,-13.50,OPEN,0
667544.738,2,0,0,1.000,1.000,1.000,-90.00,180.00,-13.50,OPEN,0
667544.742,2,0,0,1.000,1.000,1.000,-90.00,180.00,-13.50,OPEN,0
667544.745,2,0,0,1.000,1.000,1.000,-90.00,180.00,-13.50,OPEN,0
667544.749,2,0,0,1.000,1.000,1.000,-90.00,180.00,-13.50,OPEN,0
667544.752,2,0,0,1.000,1.000,1.000,-90.00,180.00,-13.50,OPEN,0
667544.756,2,0,0,1.000,1.000,1.000,-90.00,180.00,-13.50,OPEN,0
667544.759,2,0,0,1.000,1.000,1.000,-90.00,180.00,-13.50,OPEN,0
667544.763,2,0,0,1.000,1.000,1.000,-90.00,180.00,-13.50,OPEN,0
667544.766,2,0,0,1.000,1.000,1.000,-90.00,180.00,-13.50,OPEN,0
667544.770,2,0,0,1.000,1.000,1.000,-90.00,180.00,-13.50,OPEN,0
667544.773,2,0,0,1.000,1.000,1.000,-90.00,180.00,-13.50,OPEN,0
667544.777,2,0,0,1.000,1.000,1.000,-90.00,180.00,-13.50,OPEN,0
667544.782,2,0,0,1.000,1.000,1.000,-90.00,180.00,-13.50,OPEN,0
667544.785,2,0,0,1.000,1.000,1.000,-90.00,180.00,-13.50,OPEN,0
667544.789,2,0,0,1.000,1.000,1.000,-90.00,180.00,-13.50,OPEN,0
667544.793,2,0,0,1.000,1.000,1.000,-90.00,180.00,-13.50,OPEN,0
667544.796,2,0,0,1.000,1.000,1.000,-90.00,180.00,-13.50,OPEN,0
667544.800,2,0,0,1.000,1.000,1.000,-90.00,180.00,-13.50,OPEN,0
667544.804,2,0,0,1.000,1.000,1.000,-90.00,180.00,-13.50,OPEN,0
667544.809,2,0,0,1.000,1.000,1.000,-90.00,180.00,-13.50,OPEN,0
667544.812,2,0,0,1.000,1.000,1.000,-90.00,180.00,-13.50,OPEN,0
667544.816,2,0,0,1.000,1.000,1.000,-90.00,180.00,-13.50,OPEN,0
667544.820,2,0,0,1.000,1.000,1.000,-90.00,180.00,-18.00,OPEN,1
667544.825,2,0,0,1.000,1.000,1.000,-90.00,180.00,-18.00,OPEN,0
667544.828,2,0,0,1.000,1.000,1.000,-90.00,180.00,-18.00,OPEN,0
667544.832,2,0,0,1.000,1.000,1.000,-90.00,180.00,-18.00,OPEN,0
667544.835,2,0,0,1.000,1.000,1.000,-90.00,180.00,-18.00,OPEN,0
667544.839,2,0,0,1.000,1.000,1.000,-90.00,180.00,-18.00,OPEN,0
667544.843,2,0,0,1.000,1.000,1.000,-90.00,180.00,-18.00,OPEN,0
667544.846,2,0,0,1.000,1.000,1.000,-90.00,180.00,-18.00,OPEN,0
667544.850,2,0,0,1.000,1.000,1.000,-90.00,180.00,-18.00,OPEN,0
667544.854,2,0,0,1.000,1.000,1.000,-90.00,180.00,-18.00,OPEN,0
667544.858,2,0,0,1.000,1.000,1.000,-90.00,180.00,-18.00,OPEN,0
667544.861,2,0,0,1.000,1.000,1.000,-90.00,180.00,-18.00,OPEN,0
667544.865,2,0,0,1.000,1.000,1.000,-90.00,180.00,-18.00,OPEN,0
667544.868,2,0,0,1.000,1.000,1.000,-90.00,180.00,-18.00,OPEN,0
667544.872,2,0,0,1.000,1.000,1.000,-90.00,180.00,-18.00,OPEN,0
667544.875,2,0,0,1.000,1.000,1.000,-90.00,180.00,-18.00,OPEN,0
667544.879,2,0,0,1.000,1.000,1.000,-90.00,180.00,-18.00,OPEN,0
667544.883,2,0,0,1.000,1.000,1.000,-90.00,180.00,-18.00,OPEN,0
667544.887,2,0,0,1.000,1.000,1.000,-90.00,180.00,-18.00,OPEN,0
667544.891,2,0,0,1.000,1.000,1.000,-90.00,180.00,-18.00,OPEN,0
667544.895,2,0,0,1.000,1.000,1.000,-90.00,180.00,-18.00,OPEN,0
667544.899,2,0,0,1.000,1.000,1.000,-90.00,180.00,-18.00,OPEN,0
667544.902,2,0,0,1.000,1.000,1.000,-90.00,180.00,-18.00,OPEN,0
667544.906,2,0,0,1.000,1.000,1.000,-90.00,180.00,-18.00,OPEN,0
667544.909,2,0,0,1.000,1.000,1.000,-90.00,180.00,-18.00,OPEN,0
667544.912,2,0,0,1.000,1.000,1.000,-90.00,180.00,-18.00,OPEN,0
667544.916,2,0,0,1.000,1.000,1.000,-90.00,180.00,-18.00,OPEN,0
667544.919,2,0,0,1.000,1.000,1.000,-90.00,180.00,-18.00,OPEN,0
667544.923,2,0,0,1.000,1.000,1.000,-90.00,180.00,-22.50,OPEN,1
667544.927,2,0,0,0.999,1.000,1.000,-90.00,180.00,-22.50,OPEN,0
667544.930,2,0,0,0.998,1.000,1.000,-90.00,180.00,-22.50,OPEN,0
667544.934,2,0,0,0.994,1.000,1.000,-90.00,180.00,-22.50,OPEN,0
667544.937,2,0,0,0.963,1.000,1.000,-90.00,180.00,-22.50,OPEN,0
667544.941,2,0,0,0.904,1.000,1.000,-90.00,180.00,-22.50,OPEN,0
667544.944,2,0,0,0.723,1.000,1.000,-90.00,180.00,-22.50,OPEN,0
667544.948,2,0,0,0.684,1.000,1.000,-90.00,180.00,-22.50,OPEN,0
667544.951,2,0,0,0.927,1.000,1.000,-90.00,180.00,-22.50,OPEN,0
667544.954,2,0,0,0.966,1.000,1.000,-90.00,180.00,-22.50,OPEN,0
667544.958,2,0,0,0.999,1.000,1.000,-90.00,180.00,-22.50,OPEN,0
667544.962,2,0,0,1.000,1.000,1.000,-90.00,180.00,-22.50,OPEN,0
667544.965,2,0,0,1.000,1.000,1.000,-90.00,180.00,-22.50,OPEN,0
667544.969,2,0,0,1.000,1.000,1.000,-90.00,180.00,-22.50,OPEN,0
667544.972,2,0,0,1.000,1.000,1.000,-90.00,180.00,-22.50,OPEN,0
667544.976,0,0,0,1.000,1.000,1.000,-90.00,180.00,-22.50,OPEN,0
667544.980,0,0,0,1.000,1.000,1.000,-90.00,180.00,-22.50,OPEN,0
667544.984,0,0,0,1.000,1.000,1.000,-90.00,180.00,-22.50,OPEN,0
667544.988,0,0,0,1.000,1.000,1.000,-90.00,180.00,-22.50,OPEN,0
667544.992,0,0,0,1.000,1.000,1.000,-90.00,180.00,-22.50,OPEN,0
667544.996,0,0,0,1.000,1.000,1.000,-90.00,180.00,-22.50,OPEN,0
667544.999,0,0,0,1.000,1.000,1.000,-90.00,180.00,-22.50,OPEN,0
667545.002,0,0,0,1.000,1.000,1.000,-90.00,180.00,-22.50,OPEN,0
667545.006,0,0,0,1.000,1.000,1.000,-90.00,180.00,-22.50,OPEN,0
667545.009,0,0,0,1.000,1.000,1.000,-90.00,180.00,-22.50,OPEN,0
667545.012,0,0,0,1.000,1.000,1.000,-90.00,180.00,-22.50,OPEN,0
667545.016,0,0,0,1.000,1.000,1.000,-90.00,180.00,-22.50,OPEN,0
667545.020,0,0,0,1.000,1.000,1.000,-90.00,180.00,-22.50,OPEN,0
667545.024,0,0,0,1.000,1.000,1.000,-90.00,180.00,-22.50,OPEN,0
667545.028,0,0,0,1.000,1.000,1.000,-90.00,180.00,-22.50,OPEN,0
667545.031,0,0,0,1.000,1.000,1.000,-90.00,180.00,-22.50,OPEN,0
667545.035,0,0,0,1.000,1.000,1.000,-90.00,180.00,-22.50,OPEN,0
667545.038,0,0,0,1.000,1.000,1.000,-90.00,180.00,-22.50,OPEN,0
667545.042,0,0,0,1.000,1.000,1.000,-90.00,180.00,-22.50,OPEN,0
667545.045,0,0,0,1.000,1.000,1.000,-90.00,180.00,-22.50,OPEN,0
667545.049,0,0,0,1.000,1.000,1.000,-90.00,180.00,-22.50,OPEN,0
667545.052,0,0,0,1.000,1.000,1.000,-90.00,180.00,-22.50,OPEN,0
667545.055,0,0,0,1.000,1.000,1.000,-90.00,180.00,-22.50,OPEN,0
667545.059,0,0,0,1.000,1.000,1.000,-90.00,180.00,-22.50,OPEN,0
667545.062,0,0,0,1.000,1.000,1.000,-90.00,180.00,-22.50,OPEN,0
667545.065,0,0,0,1.000,1.000,1.000,-90.00,180.00,-22.50,OPEN,0
667545.068,0,0,0,1.000,1.000,1.000,-90.00,180.00,-22.50,OPEN,0
667545.072,0,0,0,1.000,1.000,1.000,-90.00,180.00,-22.50,OPEN,0
667545.075,0,0,0,1.000,1.000,1.000,-90.00,180.00,-22.50,OPEN,0
667545.078,0,0,0,1.000,1.000,1.000,-90.00,180.00,-22.50,OPEN,0
667545.082,0,0,0,1.000,1.000,1.000,-90.00,180.00,-22.50,OPEN,0
667545.085,0,0,0,1.000,1.000,1.000,-90.00,180.00,-22.50,OPEN,0
667545.089,0,0,0,1.000,1.000,1.000,-90.00,180.00,-22.50,OPEN,0
667545.092,0,0,0,1.000,1.000,1.000,-90.00,180.00,-22.50,OPEN,0
667545.096,0,0,0,1.000,1.000,1.000,-90.00,180.00,-22.50,OPEN,0
667545.100,0,0,0,1.000,1.000,1.000,-90.00,180.00,-22.50,OPEN,0
667545.104,0,0,0,1.000,1.000,1.000,-90.00,180.00,-22.50,OPEN,0
667545.107,0,0,0,1.000,1.000,1.000,-90.00,180.00,-22.50,OPEN,0
667545.111,0,0,0,1.000,1.000,1.000,-90.00,180.00,-22.50,OPEN,0
667545.115,0,0,0,1.000,1.000,1.000,-90.00,180.00,-22.50,OPEN,0
667545.118,0,0,0,1.000,1.000,1.000,-90.00,180.00,-22.50,OPEN,0
667545.121,0,0,0,1.000,1.000,1.000,-90.00,180.00,-22.50,OPEN,0
667545.124,0,0,0,1.000,1.000,1.000,-90.00,180.00,-22.50,OPEN,0
667545.127,0,0,0,1.000,1.000,1.000,-90.00,180.00,-22.50,OPEN,0
667545.131,0,0,0,1.000,1.000,1.000,-90.00,180.00,-22.50,OPEN,0
667545.134,0,0,0,1.000,1.000,1.000,-90.00,180.00,-22.50,OPEN,0
667545.138,0,0,0,1.000,1.000,1.000,-90.00,180.00,-22.50,OPEN,0
667545.141,0,0,0,1.000,1.000,1.000,-90.00,180.00,-22.50,OPEN,0
667545.144,0,0,0,1.000,1.000,1.000,-90.00,180.00,-22.50,OPEN,0
667545.148,0,0,0,1.000,1.000,1.000,-90.00,180.00,-22.50,OPEN,0
667545.151,0,0,0,1.000,1.000,1.000,-90.00,180.00,-22.50,OPEN,0
667545.155,0,0,0,1.000,1.000,1.000,-90.00,180.00,-22.50,OPEN,0
667545.158,0,0,0,1.000,1.000,1.000,-90.00,180.00,-22.50,OPEN,0
667545.162,0,0,0,1.000,1.000,1.000,-90.00,180.00,-22.50,OPEN,0
667545.165,0,0,0,1.000,1.000,1.000,-90.00,180.00,-22.50,OPEN,0
667545.169,0,0,0,1.000,1.000,1.000,-90.00,180.00,-22.50,OPEN,0
667545.172,0,0,0,1.000,1.000,1.000,-90.00,180.00,-22.50,OPEN,0
667545.176,0,0,0,1.000,1.000,1.000,-90.00,180.00,-22.50,OPEN,0
667545.179,0,0,0,1.000,1.000,1.000,-90.00,180.00,-22.50,OPEN,0
667545.183,0,0,0,1.000,1.000,1.000,-90.00,180.00,-22.50,OPEN,0
667545.187,0,0,0,1.000,1.000,1.000,-90.00,180.00,-22.50,OPEN,0
667545.191,0,0,0,1.000,1.000,1.000,-90.00,180.00,-22.50,OPEN,0
667545.194,0,0,0,1.000,1.000,1.000,-90.00,180.00,-22.50,OPEN,0
667545.198,0,0,0,1.000,1.000,1.000,-90.00,180.00,-22.50,OPEN,0
667545.202,0,0,0,1.000,1.000,1.000,-90.00,180.00,-22.50,OPEN,0
667545.205,0,0,0,1.000,1.000,1.000,-90.00,180.00,-22.50,OPEN,0
667545.209,0,0,0,1.000,1.000,1.000,-90.00,180.00,-22.50,OPEN,0
667545.212,0,0,0,1.000,1.000,1.000,-90.00,180.00,-22.50,OPEN,0
667545.216,0,0,0,1.000,1.000,1.000,-90.00,180.00,-22.50,OPEN,0
667545.220,0,0,0,1.000,1.000,1.000,-90.00,180.00,-22.50,OPEN,0
667545.225,0,0,0,1.000,1.000,1.000,-90.00,180.00,-22.50,OPEN,0
667545.229,0,0,0,1.000,1.000,1.000,-90.00,180.00,-22.50,OPEN,0
667545.233,0,0,0,1.000,1.000,1.000,-90.00,180.00,-22.50,OPEN,0
667545.237,0,0,0,1.000,1.000,1.000,-90.00,180.00,-22.50,OPEN,0
667545.241,0,0,0,1.000,1.000,1.000,-90.00,180.00,-22.50,OPEN,0
667545.246,0,0,0,1.000,1.000,1.000,-90.00,180.00,-22.50,OPEN,0
667545.252,0,0,0,1.000,1.000,1.000,-90.00,180.00,-22.50,OPEN,0
667545.256,0,0,0,1.000,1.000,1.000,-90.00,180.00,-22.50,OPEN,0
667545.261,0,0,0,1.000,1.000,1.000,-90.00,180.00,-22.50,OPEN,0
667545.265,0,0,0,1.000,1.000,1.000,-90.00,180.00,-22.50,OPEN,0
667545.269,0,0,0,1.000,1.000,1.000,-90.00,180.00,-22.50,OPEN,0
667545.273,0,0,0,1.000,1.000,1.000,-90.00,180.00,-22.50,OPEN,0
667545.277,0,0,0,1.000,1.000,1.000,-90.00,180.00,-22.50,OPEN,0
667545.281,0,0,0,1.000,1.000,1.000,-90.00,180.00,-22.50,OPEN,0
667545.284,0,0,0,1.000,1.000,1.000,-90.00,180.00,-22.50,OPEN,0
667545.288,0,0,0,1.000,1.000,1.000,-90.00,180.00,-22.50,OPEN,0
667545.292,0,0,0,1.000,1.000,1.000,-90.00,180.00,-22.50,OPEN,0
667545.296,0,0,0,1.000,1.000,1.000,-90.00,180.00,-22.50,OPEN,0
667545.300,0,0,0,1.000,1.000,1.000,-90.00,180.00,-22.50,OPEN,0
667545.304,0,0,0,1.000,1.000,1.000,-90.00,180.00,-22.50,OPEN,0
667545.308,0,0,0,1.000,1.000,1.000,-90.00,180.00,-22.50,OPEN,0
667545.311,0,0,0,1.000,1.000,1.000,-90.00,180.00,-22.50,OPEN,0
667545.315,0,0,0,1.000,1.000,1.000,-90.00,180.00,-22.50,OPEN,0
667545.319,0,0,0,1.000,1.000,1.000,-90.00,180.00,-22.50,OPEN,0
667545.323,0,0,0,1.000,1.000,1.000,-90.00,180.00,-22.50,OPEN,0
667545.326,0,0,0,1.000,1.000,1.000,-90.00,180.00,-22.50,OPEN,0
667545.329,0,0,0,1.000,1.000,1.000,-90.00,180.00,-22.50,OPEN,0
667545.333,0,0,0,1.000,1.000,1.000,-90.00,180.00,-22.50,OPEN,0
667545.336,0,0,0,1.000,1.000,1.000,-90.00,180.00,-22.50,OPEN,0
667545.340,0,0,0,1.000,1.000,1.000,-90.00,180.00,-22.50,OPEN,0
667545.343,0,0,0,1.000,1.000,1.000,-90.00,180.00,-22.50,OPEN,0
667545.346,0,0,0,1.000,1.000,1.000,-90.00,180.00,-22.50,OPEN,0
667545.350,0,0,0,0.999,1.000,1.000,-90.00,180.00,-22.50,OPEN,0
667545.353,0,0,0,0.997,1.000,1.000,-90.00,180.00,-22.50,OPEN,0
667545.357,0,0,0,0.997,1.000,1.000,-90.00,180.00,-22.50,OPEN,0
667545.360,0,0,0,0.991,1.000,1.000,-90.00,180.00,-22.50,OPEN,0
667545.363,0,0,0,0.989,1.000,1.000,-90.00,180.00,-22.50,OPEN,0
667545.366,0,0,0,0.999,1.000,1.000,-90.00,180.00,-22.50,OPEN,0
667545.370,0,0,0,1.000,1.000,1.000,-90.00,180.00,-22.50,OPEN,0
667545.373,0,0,0,1.000,1.000,1.000,-90.00,180.00,-22.50,OPEN,0
667545.376,0,0,0,1.000,1.000,1.000,-90.00,180.00,-22.50,OPEN,0
667545.380,0,0,0,1.000,1.000,1.000,-90.00,180.00,-22.50,OPEN,0
667545.385,0,0,0,1.000,1.000,1.000,-90.00,180.00,-22.50,OPEN,0
667545.388,0,0,0,1.000,1.000,1.000,-90.00,180.00,-22.50,OPEN,0
667545.391,0,0,0,1.000,1.000,1.000,-90.00,180.00,-22.50,OPEN,0
667545.396,0,0,0,1.000,1.000,1.000,-90.00,180.00,-22.50,OPEN,0
667545.400,0,0,0,1.000,1.000,1.000,-90.00,180.00,-22.50,OPEN,0
667545.405,0,0,0,1.000,1.000,1.000,-90.00,180.00,-22.50,OPEN,0
667545.409,0,0,0,1.000,1.000,1.000,-90.00,180.00,-22.50,OPEN,0
667545.413,0,0,0,1.000,1.000,1.000,-90.00,180.00,-22.50,OPEN,0
667545.416,0,0,0,1.000,1.000,1.000,-90.00,180.00,-22.50,OPEN,0
667545.420,0,0,0,1.000,1.000,1.000,-90.00,180.00,-22.50,OPEN,0
667545.423,0,0,0,1.000,1.000,1.000,-90.00,180.00,-22.50,OPEN,0
667545.427,0,0,0,1.000,1.000,1.000,-90.00,180.00,-22.50,OPEN,0
667545.430,0,0,0,1.000,1.000,1.000,-90.00,180.00,-22.50,OPEN,0
667545.434,0,0,0,1.000,1.000,1.000,-90.00,180.00,-22.50,OPEN,0
667545.438,0,0,0,1.000,1.000,1.000,-90.00,180.00,-22.50,OPEN,0
667545.443,0,0,0,1.000,1.000,1.000,-90.00,180.00,-22.50,OPEN,0
667545.447,0,0,0,1.000,1.000,1.000,-90.00,180.00,-22.50,OPEN,0
667545.450,0,0,0,1.000,1.000,1.000,-90.00,180.00,-22.50,OPEN,0
667545.454,0,0,0,1.000,1.000,1.000,-90.00,180.00,-22.50,OPEN,0
667545.457,0,0,0,1.000,1.000,1.000,-90.00,180.00,-22.50,OPEN,0
667545.460,0,0,0,1.000,1.000,1.000,-90.00,180.00,-22.50,OPEN,0
667545.464,0,0,0,1.000,1.000,1.000,-90.00,180.00,-22.50,OPEN,0
667545.467,0,0,0,0.863,1.000,1.000,-90.00,180.00,-22.50,OPEN,0
667545.471,0,0,0,0.956,1.000,1.000,-90.00,180.00,-22.50,OPEN,0
667545.475,0,0,0,0.993,1.000,1.000,-90.00,180.00,-22.50,OPEN,0
667545.480,0,0,0,0.993,1.000,1.000,-90.00,180.00,-22.50,OPEN,0
667545.484,0,0,0,0.970,1.000,1.000,-90.00,180.00,-22.50,OPEN,0
667545.489,0,0,0,0.616,1.000,1.000,-90.00,180.00,-22.50,OPEN,0
667545.492,0,0,0,0.909,1.000,1.000,-90.00,180.00,-22.50,OPEN,0
667545.496,0,0,0,0.990,1.000,1.000,-90.00,180.00,-22.50,OPEN,0
667545.499,0,0,0,0.994,1.000,1.000,-90.00,180.00,-22.50,OPEN,0
667545.502,0,0,0,0.995,1.000,1.000,-90.00,180.00,-22.50,OPEN,0
667545.505,0,0,0,0.996,1.000,1.000,-90.00,180.00,-22.50,OPEN,0
667545.509,0,0,0,0.995,1.000,1.000,-90.00,180.00,-22.50,OPEN,0
667545.513,0,0,0,0.993,1.000,1.000,-90.00,180.00,-22.50,OPEN,0
667545.518,0,0,0,0.990,1.000,1.000,-90.00,180.00,-22.50,OPEN,0
667545.522,0,0,0,0.985,1.000,1.000,-90.00,180.00,-22.50,OPEN,0
667545.526,0,0,0,0.983,1.000,1.000,-90.00,180.00,-22.50,OPEN,0
667545.529,0,0,0,0.985,1.000,1.000,-90.00,180.00,-22.50,OPEN,0
667545.533,0,0,0,0.989,1.000,1.000,-90.00,180.00,-22.50,OPEN,0
667545.536,0,0,0,0.995,1.000,1.000,-90.00,180.00,-22.50,OPEN,0
667545.539,0,0,0,0.997,1.000,1.000,-90.00,180.00,-22.50,OPEN,0
667545.542,0,0,0,0.999,1.000,1.000,-90.00,180.00,-22.50,OPEN,0
667545.546,0,0,0,0.999,1.000,1.000,-90.00,180.00,-22.50,OPEN,0
667545.551,0,0,0,1.000,1.000,1.000,-90.00,180.00,-22.50,OPEN,0
667545.555,0,0,0,1.000,1.000,1.000,-90.00,180.00,-22.50,OPEN,0
667545.558,0,0,0,1.000,1.000,1.000,-90.00,180.00,-22.50,OPEN,0
667545.561,0,0,0,1.000,1.000,1.000,-90.00,180.00,-22.50,OPEN,0
667545.565,0,0,0,1.000,1.000,1.000,-90.00,180.00,-22.50,OPEN,0
667545.568,0,0,0,1.000,1.000,1.000,-90.00,180.00,-22.50,OPEN,0
667545.572,0,0,0,1.000,1.000,1.000,-90.00,180.00,-22.50,OPEN,0
667545.575,0,0,0,1.000,1.000,1.000,-90.00,180.00,-22.50,OPEN,0
667545.578,3,0,0,1.000,1.000,1.000,-90.00,180.00,-22.50,CLOSED,0
667545.581,3,0,0,1.000,1.000,1.000,-90.00,180.00,-22.50,CLOSED,0
667545.584,3,0,0,1.000,1.000,1.000,-90.00,180.00,-22.50,CLOSED,0
667545.588,3,0,0,1.000,1.000,1.000,-90.00,180.00,-22.50,CLOSED,0
667545.591,3,0,0,1.000,1.000,1.000,-90.00,180.00,-22.50,CLOSED,0
667545.595,3,0,0,1.000,1.000,1.000,-90.00,180.00,-22.50,CLOSED,0
667545.598,3,0,0,1.000,1.000,1.000,-90.00,180.00,-22.50,CLOSED,0
667545.602,3,0,0,1.000,1.000,1.000,-90.00,180.00,-22.50,CLOSED,0
667545.606,3,0,0,0.999,1.000,1.000,-90.00,180.00,-22.50,CLOSED,0
667545.610,3,0,0,0.997,1.000,1.000,-90.00,180.00,-22.50,CLOSED,0
667545.614,3,0,0,0.992,1.000,1.000,-90.00,180.00,-22.50,CLOSED,0
667545.617,3,0,0,0.987,1.000,1.000,-90.00,180.00,-22.50,CLOSED,0
667545.621,3,0,0,0.985,1.000,1.000,-90.00,180.00,-22.50,CLOSED,0
667545.625,3,0,0,0.989,1.000,1.000,-90.00,180.00,-22.50,CLOSED,0
667545.631,3,0,0,0.993,1.000,1.000,-90.00,180.00,-22.50,CLOSED,0
667545.637,3,0,0,0.996,1.000,1.000,-90.00,180.00,-22.50,CLOSED,0
667545.642,3,0,0,0.997,1.000,1.000,-90.00,180.00,-22.50,CLOSED,0
667545.646,3,0,0,0.998,1.000,1.000,-90.00,180.00,-22.50,CLOSED,0
667545.651,3,0,0,0.998,1.000,1.000,-90.00,180.00,-22.50,CLOSED,0
667545.655,3,0,0,0.999,1.000,1.000,-90.00,180.00,-22.50,CLOSED,0
667545.659,3,0,0,0.999,1.000,1.000,-90.00,180.00,-22.50,CLOSED,0
667545.663,3,0,0,0.999,1.000,1.000,-90.00,180.00,-22.50,CLOSED,0
667545.667,3,0,0,1.000,1.000,1.000,-90.00,180.00,-22.50,CLOSED,0
667545.670,3,0,0,1.000,1.000,1.000,-90.00,180.00,-22.50,CLOSED,0
667545.674,3,0,0,1.000,1.000,1.000,-90.00,180.00,-22.50,CLOSED,0
667545.677,3,0,0,1.000,1.000,1.000,-90.00,180.00,-22.50,CLOSED,0
667545.681,3,0,0,1.000,1.000,1.000,-90.00,180.00,-22.50,CLOSED,0
667545.684,3,0,0,1.000,1.000,1.000,-90.00,180.00,-22.50,CLOSED,0
667545.687,3,0,0,1.000,1.000,1.000,-90.00,180.00,-22.50,CLOSED,0
667545.691,3,0,0,1.000,1.000,1.000,-90.00,180.00,-22.50,CLOSED,0
667545.694,3,0,0,1.000,1.000,1.000,-90.00,180.00,-22.50,CLOSED,0
667545.698,3,0,0,1.000,1.000,1.000,-90.00,180.00,-22.50,CLOSED,0
667545.701,3,0,0,1.000,1.000,1.000,-90.00,180.00,-22.50,CLOSED,0
667545.704,3,0,0,1.000,1.000,1.000,-90.00,180.00,-22.50,CLOSED,0
667545.707,3,0,0,1.000,1.000,1.000,-90.00,180.00,-22.50,CLOSED,0
667545.711,3,0,0,1.000,1.000,1.000,-90.00,180.00,-22.50,CLOSED,0
667545.715,3,0,0,1.000,1.000,1.000,-90.00,180.00,-22.50,CLOSED,0
667545.718,3,0,0,1.000,1.000,1.000,-90.00,180.00,-22.50,CLOSED,0
667545.721,3,0,0,1.000,1.000,1.000,-90.00,180.00,-22.50,CLOSED,0
667545.726,3,0,0,1.000,1.000,1.000,-90.00,180.00,-22.50,CLOSED,0
667545.730,3,0,0,1.000,1.000,1.000,-90.00,180.00,-22.50,CLOSED,0
667545.734,3,0,0,1.000,1.000,1.000,-90.00,180.00,-22.50,CLOSED,0
667545.738,3,0,0,1.000,1.000,1.000,-90.00,180.00,-22.50,CLOSED,0
667545.742,3,0,0,1.000,1.000,1.000,-90.00,180.00,-22.50,CLOSED,0
667545.745,3,0,0,1.000,1.000,1.000,-90.00,180.00,-22.50,CLOSED,0
667545.748,3,0,0,1.000,1.000,1.000,-90.00,180.00,-22.50,CLOSED,0
667545.752,3,0,0,1.000,1.000,1.000,-90.00,180.00,-22.50,CLOSED,0
667545.755,3,0,0,1.000,1.000,1.000,-90.00,180.00,-22.50,CLOSED,0
667545.758,3,0,0,1.000,1.000,1.000,-90.00,180.00,-22.50,CLOSED,0
667545.761,3,0,0,1.000,1.000,1.000,-90.00,180.00,-22.50,CLOSED,0
667545.765,3,0,0,1.000,1.000,1.000,-90.00,180.00,-22.50,CLOSED,0
667545.768,3,0,0,1.000,1.000,1.000,-90.00,180.00,-22.50,CLOSED,0
667545.771,3,0,0,1.000,1.000,1.000,-90.00,180.00,-22.50,CLOSED,0
667545.774,3,0,0,1.000,1.000,1.000,-90.00,180.00,-22.50,CLOSED,0
667545.777,3,0,0,1.000,1.000,1.000,-90.00,180.00,-22.50,CLOSED,0
667545.781,3,0,0,1.000,1.000,1.000,-90.00,180.00,-22.50,CLOSED,0
667545.784,3,0,0,1.000,1.000,1.000,-90.00,180.00,-22.50,CLOSED,0
667545.788,3,0,0,1.000,1.000,1.000,-90.00,180.00,-22.50,CLOSED,0
667545.791,3,0,0,1.000,1.000,1.000,-90.00,180.00,-22.50,CLOSED,0
667545.794,3,0,0,1.000,1.000,1.000,-90.00,180.00,-22.50,CLOSED,0
667545.798,3,0,0,1.000,1.000,1.000,-90.00,180.00,-22.50,CLOSED,0
667545.801,3,0,0,1.000,1.000,1.000,-90.00,180.00,-22.50,CLOSED,0
667545.805,3,0,0,1.000,1.000,1.000,-90.00,180.00,-22.50,CLOSED,0
667545.809,3,0,0,1.000,1.000,1.000,-90.00,180.00,-22.50,CLOSED,0
667545.812,3,0,0,1.000,1.000,1.000,-90.00,180.00,-22.50,CLOSED,0
667545.817,3,0,0,1.000,1.000,1.000,-90.00,180.00,-22.50,CLOSED,0
667545.821,3,0,0,1.000,1.000,1.000,-90.00,180.00,-22.50,CLOSED,0
667545.825,3,0,0,1.000,1.000,1.000,-90.00,180.00,-22.50,CLOSED,0
667545.829,3,0,0,1.000,1.000,1.000,-90.00,180.00,-22.50,CLOSED,0
667545.832,3,0,0,1.000,1.000,1.000,-90.00,180.00,-22.50,CLOSED,0
667545.835,3,0,0,1.000,1.000,1.000,-90.00,180.00,-22.50,CLOSED,0
667545.839,3,0,0,1.000,1.000,1.000,-90.00,180.00,-22.50,CLOSED,0
667545.842,3,0,0,1.000,1.000,1.000,-90.00,180.00,-22.50,CLOSED,0
667545.845,3,0,0,1.000,1.000,1.000,-90.00,180.00,-22.50,CLOSED,0
667545.849,3,0,0,1.000,1.000,1.000,-90.00,180.00,-22.50,CLOSED,0
667545.853,3,0,0,1.000,1.000,1.000,-90.00,180.00,-22.50,CLOSED,0
667545.856,3,0,0,0.999,1.000,1.000,-90.00,180.00,-22.50,CLOSED,0
667545.861,3,0,0,0.999,1.000,1.000,-90.00,180.00,-22.50,CLOSED,0
667545.865,3,0,0,0.999,1.000,1.000,-90.00,180.00,-22.50,CLOSED,0
667545.871,3,0,0,1.000,1.000,1.000,-90.00,180.00,-22.50,CLOSED,0
667545.875,3,0,0,1.000,1.000,1.000,-90.00,180.00,-22.50,CLOSED,0
667545.880,3,0,0,1.000,1.000,1.000,-90.00,180.00,-22.50,CLOSED,0
667545.885,3,0,0,1.000,1.000,1.000,-90.00,180.00,-22.50,CLOSED,0
667545.889,3,0,0,1.000,1.000,1.000,-90.00,180.00,-22.50,CLOSED,0
667545.892,3,0,0,1.000,1.000,1.000,-90.00,180.00,-22.50,CLOSED,0
667545.896,3,0,0,1.000,1.000,1.000,-90.00,180.00,-22.50,CLOSED,0
667545.900,3,0,0,1.000,1.000,1.000,-90.00,180.00,-22.50,CLOSED,0
667545.903,3,0,0,1.000,1.000,1.000,-90.00,180.00,-22.50,CLOSED,0
667545.906,3,0,0,1.000,1.000,1.000,-90.00,180.00,-22.50,CLOSED,0
667545.909,3,0,0,1.000,1.000,1.000,-90.00,180.00,-22.50,CLOSED,0
667545.912,3,0,0,1.000,1.000,1.000,-90.00,180.00,-22.50,CLOSED,0
667545.915,3,0,0,1.000,1.000,1.000,-90.00,180.00,-22.50,CLOSED,0
667545.919,3,0,0,1.000,1.000,1.000,-90.00,180.00,-22.50,CLOSED,0
667545.922,3,0,0,1.000,1.000,1.000,-90.00,180.00,-22.50,CLOSED,0
667545.925,3,0,0,1.000,1.000,1.000,-90.00,180.00,-22.50,CLOSED,0
667545.929,3,0,0,0.984,1.000,1.000,-90.00,180.00,-22.50,CLOSED,0
667545.932,3,0,0,0.751,1.000,1.000,-90.00,180.00,-22.50,CLOSED,0
667545.936,3,0,0,0.676,1.000,1.000,-90.00,180.00,-22.50,CLOSED,0
667545.939,3,0,0,0.897,1.000,1.000,-90.00,180.00,-22.50,CLOSED,0
667545.942,3,0,0,0.933,1.000,1.000,-90.00,180.00,-22.50,CLOSED,0
667545.946,3,0,0,0.995,1.000,1.000,-90.00,180.00,-22.50,CLOSED,0
667545.949,3,0,0,1.000,1.000,1.000,-90.00,180.00,-22.50,CLOSED,0
667545.953,3,0,0,1.000,1.000,1.000,-90.00,180.00,-22.50,CLOSED,0
667545.956,3,0,0,1.000,1.000,1.000,-90.00,180.00,-22.50,CLOSED,0
667545.960,3,0,0,1.000,1.000,1.000,-90.00,180.00,-22.50,CLOSED,0
667545.963,0,0,0,1.000,1.000,1.000,-90.00,180.00,-22.50,CLOSED,0
667545.966,0,0,0,1.000,1.000,1.000,-90.00,180.00,-22.50,CLOSED,0
667545.970,0,0,0,1.000,1.000,1.000,-90.00,180.00,-22.50,CLOSED,0
667545.973,0,0,0,1.000,1.000,1.000,-90.00,180.00,-22.50,CLOSED,0
667545.977,0,0,0,1.000,1.000,1.000,-90.00,180.00,-22.50,CLOSED,0
667545.980,0,0,0,1.000,1.000,1.000,-90.00,180.00,-22.50,CLOSED,0
667545.984,0,0,0,1.000,1.000,1.000,-90.00,180.00,-22.50,CLOSED,0
667545.987,0,0,0,1.000,1.000,1.000,-90.00,180.00,-22.50,CLOSED,0
667545.991,0,0,0,1.000,1.000,1.000,-90.00,180.00,-22.50,CLOSED,0
667545.995,0,0,0,1.000,1.000,1.000,-90.00,180.00,-22.50,CLOSED,0
667545.999,0,0,0,1.000,1.000,1.000,-90.00,180.00,-22.50,CLOSED,0
667546.003,0,0,0,1.000,1.000,1.000,-90.00,180.00,-22.50,CLOSED,0
667546.008,0,0,0,1.000,1.000,1.000,-90.00,180.00,-22.50,CLOSED,0
667546.012,0,0,0,1.000,1.000,1.000,-90.00,180.00,-22.50,CLOSED,0
667546.015,0,0,0,1.000,1.000,1.000,-90.00,180.00,-22.50,CLOSED,0
667546.018,0,0,0,1.000,1.000,1.000,-90.00,180.00,-22.50,CLOSED,0
667546.022,0,0,0,1.000,1.000,1.000,-90.00,180.00,-22.50,CLOSED,0
667546.025,0,0,0,1.000,1.000,1.000,-90.00,180.00,-22.50,CLOSED,0
667546.029,0,0,0,1.000,1.000,1.000,-90.00,180.00,-22.50,CLOSED,0
667546.032,0,0,0,1.000,1.000,1.000,-90.00,180.00,-22.50,CLOSED,0
667546.036,0,0,0,1.000,1.000,1.000,-90.00,180.00,-22.50,CLOSED,0
667546.040,0,0,0,1.000,1.000,1.000,-90.00,180.00,-22.50,CLOSED,0
667546.043,0,0,0,1.000,1.000,1.000,-90.00,180.00,-22.50,CLOSED,0
667546.046,0,0,0,1.000,1.000,1.000,-90.00,180.00,-22.50,CLOSED,0
667546.049,0,0,0,1.000,1.000,1.000,-90.00,180.00,-22.50,CLOSED,0
667546.053,0,0,0,1.000,1.000,1.000,-90.00,180.00,-22.50,CLOSED,0
667546.057,0,0,0,1.000,1.000,1.000,-90.00,180.00,-22.50,CLOSED,0
667546.061,0,0,0,1.000,1.000,1.000,-90.00,180.00,-22.50,CLOSED,0
667546.064,0,0,0,1.000,1.000,1.000,-90.00,180.00,-22.50,CLOSED,0
667546.068,0,0,0,1.000,1.000,1.000,-90.00,180.00,-22.50,CLOSED,0
667546.071,0,0,0,1.000,1.000,1.000,-90.00,180.00,-22.50,CLOSED,0
667546.075,0,0,0,1.000,1.000,1.000,-90.00,180.00,-22.50,CLOSED,0
667546.078,0,0,0,1.000,1.000,1.000,-90.00,180.00,-22.50,CLOSED,0
667546.082,0,0,0,1.000,1.000,1.000,-90.00,180.00,-22.50,CLOSED,0
667546.085,0,0,0,1.000,1.000,1.000,-90.00,180.00,-22.50,CLOSED,0
667546.089,0,0,0,1.000,1.000,1.000,-90.00,180.00,-22.50,CLOSED,0
667546.092,0,0,0,1.000,1.000,1.000,-90.00,180.00,-22.50,CLOSED,0
667546.095,0,0,0,1.000,1.000,1.000,-90.00,180.00,-22.50,CLOSED,0
667546.099,0,0,0,1.000,1.000,1.000,-90.00,180.00,-22.50,CLOSED,0
667546.102,0,0,0,1.000,1.000,1.000,-90.00,180.00,-22.50,CLOSED,0
667546.106,0,0,0,1.000,1.000,1.000,-90.00,180.00,-22.50,CLOSED,0
667546.109,0,0,0,1.000,1.000,1.000,-90.00,180.00,-22.50,CLOSED,0
667546.113,0,0,0,1.000,1.000,1.000,-90.00,180.00,-22.50,CLOSED,0
667546.117,0,0,0,1.000,1.000,1.000,-90.00,180.00,-22.50,CLOSED,0
667546.120,0,0,0,1.000,1.000,1.000,-90.00,180.00,-22.50,CLOSED,0
667546.124,0,0,0,1.000,1.000,1.000,-90.00,180.00,-22.50,CLOSED,0
667546.129,0,0,0,1.000,1.000,1.000,-90.00,180.00,-22.50,CLOSED,0
667546.134,0,0,0,1.000,1.000,1.000,-90.00,180.00,-22.50,CLOSED,0
667546.137,0,0,0,1.000,1.000,1.000,-90.00,180.00,-22.50,CLOSED,0
667546.141,0,0,0,1.000,1.000,1.000,-90.00,180.00,-22.50,CLOSED,0
667546.144,0,0,0,1.000,1.000,1.000,-90.00,180.00,-22.50,CLOSED,0
667546.148,0,0,0,1.000,1.000,1.000,-90.00,180.00,-22.50,CLOSED,0
667546.152,0,0,0,1.000,1.000,1.000,-90.00,180.00,-22.50,CLOSED,0
667546.155,0,0,0,1.000,1.000,1.000,-90.00,180.00,-22.50,CLOSED,0
667546.159,0,0,0,1.000,1.000,1.000,-90.00,180.00,-22.50,CLOSED,0
667546.162,0,0,0,1.000,1.000,1.000,-90.00,180.00,-22.50,CLOSED,0
667546.166,0,0,0,1.000,1.000,1.000,-90.00,180.00,-22.50,CLOSED,0
667546.169,0,0,0,1.000,1.000,1.000,-90.00,180.00,-22.50,CLOSED,0
667546.172,0,0,0,1.000,1.000,1.000,-90.00,180.00,-22.50,CLOSED,0
667546.176,0,0,0,1.000,1.000,1.000,-90.00,180.00,-22.50,CLOSED,0
667546.179,0,0,0,1.000,1.000,1.000,-90.00,180.00,-22.50,CLOSED,0
667546.183,0,0,0,1.000,1.000,1.000,-90.00,180.00,-22.50,CLOSED,0
667546.186,0,0,0,1.000,1.000,1.000,-90.00,180.00,-22.50,CLOSED,0
667546.190,0,0,0,1.000,1.000,1.000,-90.00,180.00,-22.50,CLOSED,0
667546.194,0,0,0,1.000,1.000,1.000,-90.00,180.00,-22.50,CLOSED,0
667546.198,0,0,0,1.000,1.000,1.000,-90.00,180.00,-22.50,CLOSED,0
667546.202,0,0,0,1.000,1.000,1.000,-90.00,180.00,-22.50,CLOSED,0
667546.205,0,0,0,1.000,1.000,1.000,-90.00,180.00,-22.50,CLOSED,0
667546.208,0,0,0,1.000,1.000,1.000,-90.00,180.00,-22.50,CLOSED,0
667546.212,0,0,0,1.000,1.000,1.000,-90.00,180.00,-22.50,CLOSED,0
667546.215,0,0,0,1.000,1.000,1.000,-90.00,180.00,-22.50,CLOSED,0
667546.219,0,0,0,1.000,1.000,1.000,-90.00,180.00,-22.50,CLOSED,0
667546.224,0,0,0,1.000,1.000,1.000,-90.00,180.00,-22.50,CLOSED,0
667546.227,0,0,0,1.000,1.000,1.000,-90.00,180.00,-22.50,CLOSED,0
667546.231,0,0,0,1.000,1.000,1.000,-90.00,180.00,-22.50,CLOSED,0
667546.234,0,0,0,1.000,1.000,1.000,-90.00,180.00,-22.50,CLOSED,0
667546.238,0,0,0,1.000,1.000,1.000,-90.00,180.00,-22.50,CLOSED,0
667546.243,0,0,0,1.000,1.000,1.000,-90.00,180.00,-22.50,CLOSED,0
667546.247,0,0,0,1.000,1.000,1.000,-90.00,180.00,-22.50,CLOSED,0
667546.251,0,0,0,1.000,1.000,1.000,-90.00,180.00,-22.50,CLOSED,0
667546.254,0,0,0,1.000,1.000,1.000,-90.00,180.00,-22.50,CLOSED,0
667546.257,0,0,0,1.000,1.000,1.000,-90.00,180.00,-22.50,CLOSED,0
667546.261,0,0,0,1.000,1.000,1.000,-90.00,180.00,-22.50,CLOSED,0
667546.264,0,0,0,1.000,1.000,1.000,-90.00,180.00,-22.50,CLOSED,0
667546.268,0,0,0,1.000,1.000,1.000,-90.00,180.00,-22.50,CLOSED,0
667546.271,0,0,0,1.000,1.000,1.000,-90.00,180.00,-22.50,CLOSED,0
667546.274,0,0,0,1.000,1.000,1.000,-90.00,180.00,-22.50,CLOSED,0
667546.278,0,0,0,1.000,1.000,1.000,-90.00,180.00,-22.50,CLOSED,0
667546.281,0,0,0,1.000,1.000,1.000,-90.00,180.00,-22.50,CLOSED,0
667546.285,0,0,0,1.000,1.000,1.000,-90.00,180.00,-22.50,CLOSED,0
667546.288,0,0,0,1.000,1.000,1.000,-90.00,180.00,-22.50,CLOSED,0
667546.293,0,0,0,1.000,1.000,1.000,-90.00,180.00,-22.50,CLOSED,0
667546.296,0,0,0,1.000,1.000,1.000,-90.00,180.00,-22.50,CLOSED,0
667546.300,0,0,0,1.000,1.000,1.000,-90.00,180.00,-22.50,CLOSED,0
667546.304,0,0,0,1.000,1.000,1.000,-90.00,180.00,-22.50,CLOSED,0
667546.308,0,0,0,1.000,1.000,1.000,-90.00,180.00,-22.50,CLOSED,0
667546.311,0,0,0,1.000,1.000,1.000,-90.00,180.00,-22.50,CLOSED,0
667546.315,0,0,0,1.000,1.000,1.000,-90.00,180.00,-22.50,CLOSED,0
667546.319,0,0,0,1.000,1.000,1.000,-90.00,180.00,-22.50,CLOSED,0
667546.322,0,0,0,1.000,1.000,1.000,-90.00,180.00,-22.50,CLOSED,0
667546.326,0,0,0,1.000,1.000,1.000,-90.00,180.00,-22.50,CLOSED,0
667546.329,0,0,0,1.000,1.000,1.000,-90.00,180.00,-22.50,CLOSED,0
667546.333,0,0,0,1.000,1.000,1.000,-90.00,180.00,-22.50,CLOSED,0
667546.336,0,0,0,1.000,1.000,1.000,-90.00,180.00,-22.50,CLOSED,0
667546.340,0,0,0,1.000,1.000,1.000,-90.00,180.00,-22.50,CLOSED,0
667546.349,0,0,0,1.000,1.000,1.000,-90.00,180.00,-22.50,CLOSED,0
667546.354,0,0,0,1.000,1.000,1.000,-90.00,180.00,-22.50,CLOSED,0
667546.357,0,0,0,1.000,1.000,1.000,-90.00,180.00,-22.50,CLOSED,0
667546.361,0,0,0,1.000,1.000,1.000,-90.00,180.00,-22.50,CLOSED,0
667546.364,0,0,0,1.000,1.000,1.000,-90.00,180.00,-22.50,CLOSED,0
667546.369,0,0,0,1.000,1.000,1.000,-90.00,180.00,-22.50,CLOSED,0
667546.373,0,0,0,1.000,1.000,1.000,-90.00,180.00,-22.50,CLOSED,0
667546.377,0,0,0,1.000,1.000,1.000,-90.00,180.00,-22.50,CLOSED,0
667546.382,0,0,0,1.000,1.000,1.000,-90.00,180.00,-22.50,CLOSED,0
667546.386,0,0,0,1.000,1.000,1.000,-90.00,180.00,-22.50,CLOSED,0
667546.391,0,0,0,1.000,1.000,1.000,-90.00,180.00,-22.50,CLOSED,0
667546.396,0,0,0,1.000,1.000,1.000,-90.00,180.00,-22.50,CLOSED,0
667546.401,0,0,0,1.000,1.000,1.000,-90.00,180.00,-22.50,CLOSED,0
667546.405,0,0,0,1.000,1.000,1.000,-90.00,180.00,-22.50,CLOSED,0
667546.410,0,0,0,1.000,1.000,1.000,-90.00,180.00,-22.50,CLOSED,0
667546.414,0,0,0,1.000,1.000,1.000,-90.00,180.00,-22.50,CLOSED,0
667546.418,0,0,0,1.000,1.000,1.000,-90.00,180.00,-22.50,CLOSED,0
667546.422,0,0,0,1.000,1.000,1.000,-90.00,180.00,-22.50,CLOSED,0
667546.426,0,0,0,1.000,1.000,1.000,-90.00,180.00,-22.50,CLOSED,0
667546.429,0,0,0,1.000,1.000,1.000,-90.00,180.00,-22.50,CLOSED,0
667546.433,0,0,0,1.000,1.000,1.000,-90.00,180.00,-22.50,CLOSED,0
667546.437,0,0,0,1.000,1.000,1.000,-90.00,180.00,-22.50,CLOSED,0
667546.440,0,0,0,1.000,1.000,1.000,-90.00,180.00,-22.50,CLOSED,0
667546.443,0,0,0,1.000,1.000,1.000,-90.00,180.00,-22.50,CLOSED,0
667546.447,0,0,0,1.000,1.000,1.000,-90.00,180.00,-22.50,CLOSED,0
667546.451,0,0,0,1.000,1.000,1.000,-90.00,180.00,-22.50,CLOSED,0
667546.455,0,0,0,1.000,1.000,1.000,-90.00,180.00,-22.50,CLOSED,0
667546.460,0,0,0,1.000,1.000,1.000,-90.00,180.00,-22.50,CLOSED,0
667546.464,0,0,0,1.000,1.000,1.000,-90.00,180.00,-22.50,CLOSED,0
667546.469,0,0,0,1.000,1.000,1.000,-90.00,180.00,-22.50,CLOSED,0
667546.474,0,0,0,1.000,1.000,1.000,-90.00,180.00,-22.50,CLOSED,0
667546.477,0,0,0,1.000,1.000,1.000,-90.00,180.00,-22.50,CLOSED,0
667546.480,0,0,0,1.000,1.000,1.000,-90.00,180.00,-22.50,CLOSED,0
667546.483,0,0,0,1.000,1.000,1.000,-90.00,180.00,-22.50,CLOSED,0
667546.487,0,0,0,1.000,1.000,1.000,-90.00,180.00,-22.50,CLOSED,0
667546.490,0,0,0,1.000,1.000,1.000,-90.00,180.00,-22.50,CLOSED,0
667546.494,0,0,0,1.000,1.000,1.000,-90.00,180.00,-22.50,CLOSED,0
667546.497,0,0,0,1.000,1.000,1.000,-90.00,180.00,-22.50,CLOSED,0
667546.501,0,0,0,1.000,1.000,1.000,-90.00,180.00,-22.50,CLOSED,0
667546.504,0,0,0,1.000,1.000,1.000,-90.00,180.00,-22.50,CLOSED,0
667546.507,0,0,0,1.000,1.000,1.000,-90.00,180.00,-22.50,CLOSED,0
667546.511,0,0,0,1.000,1.000,1.000,-90.00,180.00,-22.50,CLOSED,0
667546.514,0,0,0,1.000,1.000,1.000,-90.00,180.00,-22.50,CLOSED,0
667546.518,0,0,0,1.000,1.000,1.000,-90.00,180.00,-22.50,CLOSED,0
667546.521,0,0,0,1.000,1.000,1.000,-90.00,180.00,-22.50,CLOSED,0
667546.524,0,0,0,1.000,1.000,1.000,-90.00,180.00,-22.50,CLOSED,0
667546.528,0,0,0,1.000,1.000,1.000,-90.00,180.00,-22.50,CLOSED,0
667546.531,0,0,0,1.000,1.000,1.000,-90.00,180.00,-22.50,CLOSED,0
667546.535,0,0,0,1.000,1.000,1.000,-90.00,180.00,-22.50,CLOSED,0
667546.538,0,0,0,1.000,1.000,1.000,-90.00,180.00,-22.50,CLOSED,0
667546.541,0,0,0,1.000,1.000,1.000,-90.00,180.00,-22.50,CLOSED,0
667546.544,0,0,0,1.000,1.000,1.000,-90.00,180.00,-22.50,CLOSED,0
667546.548,0,0,0,1.000,1.000,1.000,-90.00,180.00,-22.50,CLOSED,0
667546.553,0,0,0,1.000,1.000,1.000,-90.00,180.00,-22.50,CLOSED,0
667546.556,0,0,0,1.000,1.000,1.000,-90.00,180.00,-22.50,CLOSED,0
667546.560,0,0,0,1.000,1.000,1.000,-90.00,180.00,-22.50,CLOSED,0
667546.563,0,0,0,1.000,1.000,1.000,-90.00,180.00,-22.50,CLOSED,0
667546.567,0,0,0,1.000,1.000,1.000,-90.00,180.00,-22.50,CLOSED,0
667546.570,0,0,0,1.000,1.000,1.000,-90.00,180.00,-22.50,CLOSED,0
667546.573,0,0,0,1.000,1.000,1.000,-90.00,180.00,-22.50,CLOSED,0
667546.577,0,0,0,1.000,1.000,1.000,-90.00,180.00,-22.50,CLOSED,0
667546.580,0,0,0,1.000,1.000,1.000,-90.00,180.00,-22.50,CLOSED,0
667546.584,0,0,0,1.000,1.000,1.000,-90.00,180.00,-22.50,CLOSED,0
667546.587,0,0,0,1.000,1.000,1.000,-90.00,180.00,-22.50,CLOSED,0
667546.590,0,0,0,1.000,1.000,1.000,-90.00,180.00,-22.50,CLOSED,0
667546.593,0,0,0,1.000,1.000,1.000,-90.00,180.00,-22.50,CLOSED,0
667546.597,0,0,0,1.000,1.000,1.000,-90.00,180.00,-22.50,CLOSED,0
667546.600,0,0,0,1.000,1.000,1.000,-90.00,180.00,-22.50,CLOSED,0
667546.604,0,0,0,1.000,1.000,1.000,-90.00,180.00,-22.50,CLOSED,0
667546.608,0,0,0,1.000,1.000,1.000,-90.00,180.00,-22.50,CLOSED,0
667546.611,0,0,0,1.000,1.000,1.000,-90.00,180.00,-22.50,CLOSED,0
667546.615,0,0,0,1.000,1.000,1.000,-90.00,180.00,-22.50,CLOSED,0
667546.619,0,0,0,1.000,1.000,1.000,-90.00,180.00,-22.50,CLOSED,0
667546.623,0,0,0,1.000,1.000,1.000,-90.00,180.00,-22.50,CLOSED,0
667546.627,0,0,0,1.000,1.000,1.000,-90.00,180.00,-22.50,CLOSED,0
667546.630,0,0,0,1.000,1.000,1.000,-90.00,180.00,-22.50,CLOSED,0
667546.634,0,0,0,1.000,1.000,1.000,-90.00,180.00,-22.50,CLOSED,0
667546.637,0,0,0,1.000,1.000,1.000,-90.00,180.00,-22.50,CLOSED,0
667546.641,0,0,0,1.000,1.000,1.000,-90.00,180.00,-22.50,CLOSED,0
667546.644,0,0,0,1.000,1.000,1.000,-90.00,180.00,-22.50,CLOSED,0
667546.647,0,0,0,1.000,1.000,1.000,-90.00,180.00,-22.50,CLOSED,0
667546.651,0,0,0,1.000,1.000,1.000,-90.00,180.00,-22.50,CLOSED,0
667546.654,0,0,0,1.000,1.000,1.000,-90.00,180.00,-22.50,CLOSED,0
667546.658,0,0,0,1.000,1.000,1.000,-90.00,180.00,-22.50,CLOSED,0
667546.661,0,0,0,1.000,1.000,1.000,-90.00,180.00,-22.50,CLOSED,0
667546.665,0,0,0,1.000,1.000,1.000,-90.00,180.00,-22.50,CLOSED,0
667546.668,0,0,0,1.000,1.000,1.000,-90.00,180.00,-22.50,CLOSED,0
667546.672,0,0,0,1.000,1.000,1.000,-90.00,180.00,-22.50,CLOSED,0
667546.676,0,0,0,1.000,1.000,1.000,-90.00,180.00,-22.50,CLOSED,0
667546.681,0,0,0,1.000,1.000,1.000,-90.00,180.00,-22.50,CLOSED,0
667546.685,0,0,0,1.000,1.000,1.000,-90.00,180.00,-22.50,CLOSED,0
667546.688,0,0,0,1.000,1.000,1.000,-90.00,180.00,-22.50,CLOSED,0
667546.691,0,0,0,1.000,1.000,1.000,-90.00,180.00,-22.50,CLOSED,0
667546.695,0,0,0,1.000,1.000,1.000,-90.00,180.00,-22.50,CLOSED,0
667546.698,0,0,0,1.000,1.000,1.000,-90.00,180.00,-22.50,CLOSED,0
667546.702,0,0,0,1.000,1.000,1.000,-90.00,180.00,-22.50,CLOSED,0
667546.705,0,0,0,1.000,1.000,1.000,-90.00,180.00,-22.50,CLOSED,0
667546.708,0,0,0,1.000,1.000,1.000,-90.00,180.00,-22.50,CLOSED,0
667546.711,0,0,0,1.000,1.000,1.000,-90.00,180.00,-22.50,CLOSED,0
667546.715,0,0,0,1.000,1.000,1.000,-90.00,180.00,-22.50,CLOSED,0
667546.718,0,0,0,1.000,1.000,1.000,-90.00,180.00,-22.50,CLOSED,0
667546.722,0,0,0,1.000,1.000,1.000,-90.00,180.00,-22.50,CLOSED,0
667546.725,0,0,0,1.000,1.000,1.000,-90.00,180.00,-22.50,CLOSED,0
667546.728,0,0,0,1.000,1.000,1.000,-90.00,180.00,-22.50,CLOSED,0
667546.732,0,0,0,1.000,1.000,1.000,-90.00,180.00,-22.50,CLOSED,0
667546.736,0,0,0,1.000,1.000,1.000,-90.00,180.00,-22.50,CLOSED,0
667546.740,0,0,0,1.000,1.000,1.000,-90.00,180.00,-22.50,CLOSED,0
667546.743,0,0,0,1.000,1.000,1.000,-90.00,180.00,-22.50,CLOSED,0
667546.747,0,0,0,1.000,1.000,1.000,-90.00,180.00,-22.50,CLOSED,0
667546.751,0,0,0,1.000,1.000,1.000,-90.00,180.00,-22.50,CLOSED,0
667546.755,0,0,0,1.000,1.000,1.000,-90.00,180.00,-22.50,CLOSED,0
667546.759,0,0,0,1.000,1.000,1.000,-90.00,180.00,-22.50,CLOSED,0
667546.762,0,0,0,1.000,1.000,1.000,-90.00,180.00,-22.50,CLOSED,0
667546.766,0,0,0,1.000,1.000,1.000,-90.00,180.00,-22.50,CLOSED,0
667546.769,0,0,0,1.000,1.000,1.000,-90.00,180.00,-22.50,CLOSED,0
667546.773,0,0,0,1.000,1.000,1.000,-90.00,180.00,-22.50,CLOSED,0
667546.777,0,0,0,1.000,1.000,1.000,-90.00,180.00,-22.50,CLOSED,0
667546.780,0,0,0,1.000,1.000,1.000,-90.00,180.00,-22.50,CLOSED,0
667546.785,0,0,0,1.000,1.000,1.000,-90.00,180.00,-22.50,CLOSED,0
667546.790,0,0,0,1.000,1.000,1.000,-90.00,180.00,-22.50,CLOSED,0
667546.793,0,0,0,1.000,1.000,1.000,-90.00,180.00,-22.50,CLOSED,0
667546.798,0,0,0,1.000,1.000,1.000,-90.00,180.00,-22.50,CLOSED,0
667546.803,0,0,0,1.000,1.000,1.000,-90.00,180.00,-22.50,CLOSED,0
667546.809,0,0,0,1.000,1.000,1.000,-90.00,180.00,-22.50,CLOSED,0
667546.815,0,0,0,1.000,1.000,1.000,-90.00,180.00,-22.50,CLOSED,0
667546.821,0,0,0,1.000,1.000,1.000,-90.00,180.00,-22.50,CLOSED,0
667546.825,0,0,0,1.000,1.000,1.000,-90.00,180.00,-22.50,CLOSED,0
667546.829,0,0,0,1.000,1.000,1.000,-90.00,180.00,-22.50,CLOSED,0
667546.833,0,0,0,1.000,1.000,1.000,-90.00,180.00,-22.50,CLOSED,0
667546.836,0,0,0,1.000,1.000,1.000,-90.00,180.00,-22.50,CLOSED,0
667546.840,0,0,0,1.000,1.000,1.000,-90.00,180.00,-22.50,CLOSED,0
667546.844,0,0,0,1.000,1.000,1.000,-90.00,180.00,-22.50,CLOSED,0
667546.849,0,0,0,1.000,1.000,1.000,-90.00,180.00,-22.50,CLOSED,0
667546.852,0,0,0,1.000,1.000,1.000,-90.00,180.00,-22.50,CLOSED,0
667546.856,0,0,0,1.000,1.000,1.000,-90.00,180.00,-22.50,CLOSED,0
667546.859,0,0,0,1.000,1.000,1.000,-90.00,180.00,-22.50,CLOSED,0
667546.863,0,0,0,1.000,1.000,1.000,-90.00,180.00,-22.50,CLOSED,0
667546.866,0,0,0,1.000,1.000,1.000,-90.00,180.00,-22.50,CLOSED,0
667546.869,0,0,0,1.000,1.000,1.000,-90.00,180.00,-22.50,CLOSED,0
667546.873,0,0,0,1.000,1.000,1.000,-90.00,180.00,-22.50,CLOSED,0
667546.876,0,0,0,1.000,1.000,1.000,-90.00,180.00,-22.50,CLOSED,0
667546.880,0,0,0,1.000,1.000,1.000,-90.00,180.00,-22.50,CLOSED,0
667546.885,0,0,0,1.000,1.000,1.000,-90.00,180.00,-22.50,CLOSED,0
667546.890,0,0,0,1.000,1.000,1.000,-90.00,180.00,-22.50,CLOSED,0
667546.894,0,0,0,1.000,1.000,1.000,-90.00,180.00,-22.50,CLOSED,0
667546.899,0,0,0,1.000,1.000,1.000,-90.00,180.00,-22.50,CLOSED,0
667546.903,0,0,0,1.000,1.000,1.000,-90.00,180.00,-22.50,CLOSED,0
667546.907,0,0,0,1.000,1.000,1.000,-90.00,180.00,-22.50,CLOSED,0
667546.910,0,0,0,1.000,1.000,1.000,-90.00,180.00,-22.50,CLOSED,0
667546.914,0,0,0,1.000,1.000,1.000,-90.00,180.00,-22.50,CLOSED,0
667546.917,0,0,0,1.000,1.000,1.000,-90.00,180.00,-22.50,CLOSED,0
667546.920,0,0,0,1.000,1.000,1.000,-90.00,180.00,-22.50,CLOSED,0
667546.924,0,0,0,1.000,1.000,1.000,-90.00,180.00,-22.50,CLOSED,0
667546.927,0,0,0,1.000,1.000,1.000,-90.00,180.00,-22.50,CLOSED,0
667546.930,0,0,0,1.000,1.000,1.000,-90.00,180.00,-22.50,CLOSED,0
667546.934,0,0,0,1.000,1.000,1.000,-90.00,180.00,-22.50,CLOSED,0
667546.937,0,0,0,1.000,1.000,1.000,-90.00,180.00,-22.50,CLOSED,0
667546.940,0,0,0,1.000,1.000,1.000,-90.00,180.00,-22.50,CLOSED,0
667546.943,0,0,0,1.000,1.000,1.000,-90.00,180.00,-22.50,CLOSED,0
667546.947,0,0,0,1.000,1.000,1.000,-90.00,180.00,-22.50,CLOSED,0
667546.950,0,0,0,1.000,1.000,1.000,-90.00,180.00,-22.50,CLOSED,0
667546.954,0,0,0,1.000,1.000,1.000,-90.00,180.00,-22.50,CLOSED,0
667546.958,0,0,0,1.000,1.000,1.000,-90.00,180.00,-22.50,CLOSED,0
667546.961,0,0,0,0.996,1.000,1.000,-90.00,180.00,-22.50,CLOSED,0
667546.965,0,0,0,0.993,1.000,1.000,-90.00,180.00,-22.50,CLOSED,0
667546.968,0,0,0,1.000,1.000,1.000,-90.00,180.00,-22.50,CLOSED,0
667546.972,0,0,0,1.000,1.000,1.000,-90.00,180.00,-22.50,CLOSED,0
667546.975,0,0,0,1.000,1.000,1.000,-90.00,180.00,-22.50,CLOSED,0
667546.978,0,0,0,1.000,1.000,1.000,-90.00,180.00,-22.50,CLOSED,0
667546.982,0,0,0,1.000,1.000,1.000,-90.00,180.00,-22.50,CLOSED,0
667546.985,0,0,0,1.000,1.000,1.000,-90.00,180.00,-22.50,CLOSED,0
667546.989,0,0,0,0.990,1.000,1.000,-90.00,180.00,-22.50,CLOSED,0
667546.992,0,0,0,0.999,1.000,1.000,-90.00,180.00,-22.50,CLOSED,0
667546.996,0,0,0,0.991,1.000,1.000,-90.00,180.00,-22.50,CLOSED,0
667547.001,0,0,0,0.992,1.000,1.000,-90.00,180.00,-22.50,CLOSED,0
667547.006,0,0,0,0.998,1.000,1.000,-90.00,180.00,-22.50,CLOSED,0
667547.010,0,0,0,1.000,1.000,1.000,-90.00,180.00,-22.50,CLOSED,0
667547.014,0,0,0,1.000,1.000,1.000,-90.00,180.00,-22.50,CLOSED,0
667547.017,0,0,0,1.000,1.000,1.000,-90.00,180.00,-22.50,CLOSED,0
667547.021,0,0,0,1.000,1.000,1.000,-90.00,180.00,-22.50,CLOSED,0
667547.024,0,0,0,1.000,1.000,1.000,-90.00,180.00,-22.50,CLOSED,0
667547.027,0,0,0,1.000,1.000,1.000,-90.00,180.00,-22.50,CLOSED,0
667547.031,0,0,0,1.000,1.000,1.000,-90.00,180.00,-22.50,CLOSED,0
667547.034,0,0,0,1.000,1.000,1.000,-90.00,180.00,-22.50,CLOSED,0
667547.037,0,0,0,1.000,1.000,1.000,-90.00,180.00,-22.50,CLOSED,0
667547.041,0,0,0,1.000,1.000,1.000,-90.00,180.00,-22.50,CLOSED,0
667547.045,0,0,0,1.000,1.000,1.000,-90.00,180.00,-22.50,CLOSED,0
667547.048,0,0,0,1.000,1.000,1.000,-90.00,180.00,-22.50,CLOSED,0
667547.052,0,0,0,1.000,1.000,1.000,-90.00,180.00,-22.50,CLOSED,0
667547.056,0,0,0,1.000,1.000,1.000,-90.00,180.00,-22.50,CLOSED,0
667547.060,0,0,0,1.000,1.000,1.000,-90.00,180.00,-22.50,CLOSED,0
667547.064,0,0,0,1.000,1.000,1.000,-90.00,180.00,-22.50,CLOSED,0
667547.067,0,0,0,1.000,1.000,1.000,-90.00,180.00,-22.50,CLOSED,0
667547.071,0,0,0,1.000,1.000,1.000,-90.00,180.00,-22.50,CLOSED,0
667547.074,0,0,0,1.000,1.000,1.000,-90.00,180.00,-22.50,CLOSED,0
667547.078,0,0,0,1.000,1.000,1.000,-90.00,180.00,-22.50,CLOSED,0
667547.081,0,0,0,1.000,1.000,1.000,-90.00,180.00,-22.50,CLOSED,0
667547.085,0,0,0,1.000,1.000,1.000,-90.00,180.00,-22.50,CLOSED,0
667547.088,0,0,0,1.000,1.000,1.000,-90.00,180.00,-22.50,CLOSED,0
667547.092,0,0,0,1.000,1.000,1.000,-90.00,180.00,-22.50,CLOSED,0
667547.095,0,0,0,1.000,1.000,1.000,-90.00,180.00,-22.50,CLOSED,0
667547.098,0,0,0,1.000,1.000,1.000,-90.00,180.00,-22.50,CLOSED,0
667547.102,0,0,0,1.000,1.000,1.000,-90.00,180.00,-22.50,CLOSED,0
667547.105,0,0,0,1.000,1.000,1.000,-90.00,180.00,-22.50,CLOSED,0
667547.109,0,0,0,1.000,1.000,1.000,-90.00,180.00,-22.50,CLOSED,0
667547.113,0,0,0,1.000,1.000,1.000,-90.00,180.00,-22.50,CLOSED,0
667547.117,0,0,0,1.000,1.000,1.000,-90.00,180.00,-22.50,CLOSED,0
667547.120,0,0,0,1.000,1.000,1.000,-90.00,180.00,-22.50,CLOSED,0
667547.124,0,0,0,1.000,1.000,1.000,-90.00,180.00,-22.50,CLOSED,0
667547.128,0,0,0,1.000,1.000,1.000,-90.00,180.00,-22.50,CLOSED,0
667547.133,0,0,0,1.000,1.000,1.000,-90.00,180.00,-22.50,CLOSED,0
667547.136,0,0,0,1.000,1.000,1.000,-90.00,180.00,-22.50,CLOSED,0
667547.139,0,0,0,1.000,1.000,1.000,-90.00,180.00,-22.50,CLOSED,0
667547.142,0,0,0,1.000,1.000,1.000,-90.00,180.00,-22.50,CLOSED,0
667547.146,0,0,0,1.000,1.000,1.000,-90.00,180.00,-22.50,CLOSED,0
667547.150,0,0,0,1.000,1.000,1.000,-90.00,180.00,-22.50,CLOSED,0
667547.154,0,0,0,1.000,1.000,1.000,-90.00,180.00,-22.50,CLOSED,0
667547.157,0,0,0,1.000,1.000,1.000,-90.00,180.00,-22.50,CLOSED,0
667547.160,0,0,0,1.000,1.000,1.000,-90.00,180.00,-22.50,CLOSED,0
667547.164,0,0,0,1.000,1.000,1.000,-90.00,180.00,-22.50,CLOSED,0
667547.167,0,0,0,1.000,1.000,1.000,-90.00,180.00,-22.50,CLOSED,0
667547.171,0,0,0,1.000,1.000,1.000,-90.00,180.00,-22.50,CLOSED,0
667547.175,0,0,0,1.000,1.000,1.000,-90.00,180.00,-22.50,CLOSED,0
667547.178,0,0,0,1.000,1.000,1.000,-90.00,180.00,-22.50,CLOSED,0
667547.182,0,0,0,1.000,1.000,1.000,-90.00,180.00,-22.50,CLOSED,0
667547.186,0,0,0,1.000,1.000,1.000,-90.00,180.00,-22.50,CLOSED,0
667547.189,0,0,0,1.000,1.000,1.000,-90.00,180.00,-22.50,CLOSED,0
667547.192,0,0,0,1.000,1.000,1.000,-90.00,180.00,-22.50,CLOSED,0
667547.196,0,0,0,1.000,1.000,1.000,-90.00,180.00,-22.50,CLOSED,0
667547.199,0,0,0,1.000,1.000,1.000,-90.00,180.00,-22.50,CLOSED,0
667547.203,0,0,0,1.000,1.000,1.000,-90.00,180.00,-22.50,CLOSED,0
667547.206,0,0,0,1.000,1.000,1.000,-90.00,180.00,-22.50,CLOSED,0
667547.210,0,0,0,1.000,1.000,1.000,-90.00,180.00,-22.50,CLOSED,0
667547.214,0,0,0,1.000,1.000,1.000,-90.00,180.00,-22.50,CLOSED,0
667547.217,0,0,0,1.000,1.000,1.000,-90.00,180.00,-22.50,CLOSED,0
667547.221,0,0,0,1.000,1.000,1.000,-90.00,180.00,-22.50,CLOSED,0
667547.224,0,0,0,1.000,1.000,1.000,-90.00,180.00,-22.50,CLOSED,0
667547.229,0,0,0,1.000,1.000,1.000,-90.00,180.00,-22.50,CLOSED,0
667547.233,0,0,0,1.000,1.000,1.000,-90.00,180.00,-22.50,CLOSED,0
667547.237,0,0,0,1.000,1.000,1.000,-90.00,180.00,-22.50,CLOSED,0
667547.241,0,0,0,1.000,1.000,1.000,-90.00,180.00,-22.50,CLOSED,0
667547.245,0,0,0,1.000,1.000,1.000,-90.00,180.00,-22.50,CLOSED,0
667547.249,0,0,0,1.000,1.000,1.000,-90.00,180.00,-22.50,CLOSED,0
667547.252,0,0,0,1.000,1.000,1.000,-90.00,180.00,-22.50,CLOSED,0
667547.255,0,0,0,1.000,1.000,1.000,-90.00,180.00,-22.50,CLOSED,0
667547.259,0,0,0,1.000,1.000,1.000,-90.00,180.00,-22.50,CLOSED,0
667547.262,0,0,0,1.000,1.000,1.000,-90.00,180.00,-22.50,CLOSED,0
667547.266,0,0,0,1.000,1.000,1.000,-90.00,180.00,-22.50,CLOSED,0
667547.269,0,0,0,1.000,1.000,1.000,-90.00,180.00,-22.50,CLOSED,0
667547.272,0,0,0,1.000,1.000,1.000,-90.00,180.00,-22.50,CLOSED,0
667547.276,0,0,0,1.000,1.000,1.000,-90.00,180.00,-22.50,CLOSED,0
667547.279,0,0,0,1.000,1.000,1.000,-90.00,180.00,-22.50,CLOSED,0
667547.282,0,0,0,1.000,1.000,1.000,-90.00,180.00,-22.50,CLOSED,0
667547.285,0,0,0,1.000,1.000,1.000,-90.00,180.00,-22.50,CLOSED,0
667547.289,0,0,0,1.000,1.000,1.000,-90.00,180.00,-22.50,CLOSED,0
667547.294,0,0,0,1.000,1.000,1.000,-90.00,180.00,-22.50,CLOSED,0
667547.297,0,0,0,1.000,1.000,1.000,-90.00,180.00,-22.50,CLOSED,0
667547.301,0,0,0,1.000,1.000,1.000,-90.00,180.00,-22.50,CLOSED,0
667547.304,0,0,0,1.000,1.000,1.000,-90.00,180.00,-22.50,CLOSED,0
667547.308,0,0,0,1.000,1.000,1.000,-90.00,180.00,-22.50,CLOSED,0
667547.311,0,0,0,1.000,1.000,1.000,-90.00,180.00,-22.50,CLOSED,0
667547.315,0,0,0,1.000,1.000,1.000,-90.00,180.00,-22.50,CLOSED,0
667547.319,0,0,0,1.000,1.000,1.000,-90.00,180.00,-22.50,CLOSED,0
667547.322,0,0,0,1.000,1.000,1.000,-90.00,180.00,-22.50,CLOSED,0
667547.326,0,0,0,1.000,1.000,1.000,-90.00,180.00,-22.50,CLOSED,0
667547.329,0,0,0,1.000,1.000,1.000,-90.00,180.00,-22.50,CLOSED,0
667547.333,0,0,0,1.000,1.000,1.000,-90.00,180.00,-22.50,CLOSED,0
667547.336,0,0,0,1.000,1.000,1.000,-90.00,180.00,-22.50,CLOSED,0
667547.340,0,0,0,1.000,1.000,1.000,-90.00,180.00,-22.50,CLOSED,0
667547.344,0,0,0,1.000,1.000,1.000,-90.00,180.00,-22.50,CLOSED,0
667547.348,0,0,0,1.000,1.000,1.000,-90.00,180.00,-22.50,CLOSED,0
667547.352,0,0,0,1.000,1.000,1.000,-90.00,180.00,-22.50,CLOSED,0
667547.355,0,0,0,1.000,1.000,1.000,-90.00,180.00,-22.50,CLOSED,0
667547.360,0,0,0,1.000,1.000,1.000,-90.00,180.00,-22.50,CLOSED,0
667547.365,0,0,0,1.000,1.000,1.000,-90.00,180.00,-22.50,CLOSED,0
667547.371,0,0,0,1.000,1.000,1.000,-90.00,180.00,-22.50,CLOSED,0
667547.376,0,0,0,1.000,1.000,1.000,-90.00,180.00,-22.50,CLOSED,0
667547.381,0,0,0,1.000,1.000,1.000,-90.00,180.00,-22.50,CLOSED,0
667547.386,0,0,0,1.000,1.000,1.000,-90.00,180.00,-22.50,CLOSED,0
667547.391,0,0,0,1.000,1.000,1.000,-90.00,180.00,-22.50,CLOSED,0
667547.396,0,0,0,1.000,1.000,1.000,-90.00,180.00,-22.50,CLOSED,0
667547.400,0,0,0,1.000,1.000,1.000,-90.00,180.00,-22.50,CLOSED,0
667547.404,0,0,0,1.000,1.000,1.000,-90.00,180.00,-22.50,CLOSED,0
667547.408,0,0,0,1.000,1.000,1.000,-90.00,180.00,-22.50,CLOSED,0
667547.412,0,0,0,1.000,1.000,1.000,-90.00,180.00,-22.50,CLOSED,0
667547.416,0,0,0,1.000,1.000,1.000,-90.00,180.00,-22.50,CLOSED,0
667547.420,0,0,0,1.000,1.000,1.000,-90.00,180.00,-22.50,CLOSED,0
667547.424,0,0,0,1.000,1.000,1.000,-90.00,180.00,-22.50,CLOSED,0
667547.427,0,0,0,1.000,1.000,1.000,-90.00,180.00,-22.50,CLOSED,0
667547.431,0,0,0,1.000,1.000,1.000,-90.00,180.00,-22.50,CLOSED,0
667547.436,0,0,0,1.000,1.000,1.000,-90.00,180.00,-22.50,CLOSED,0
667547.440,0,0,0,1.000,1.000,1.000,-90.00,180.00,-22.50,CLOSED,0
667547.444,0,0,0,1.000,1.000,1.000,-90.00,180.00,-22.50,CLOSED,0
667547.448,0,0,0,1.000,1.000,1.000,-90.00,180.00,-22.50,CLOSED,0
667547.451,0,0,0,1.000,1.000,1.000,-90.00,180.00,-22.50,CLOSED,0
667547.455,0,0,0,1.000,1.000,1.000,-90.00,180.00,-22.50,CLOSED,0
667547.460,0,0,0,1.000,1.000,1.000,-90.00,180.00,-22.50,CLOSED,0
667547.464,0,0,0,1.000,1.000,1.000,-90.00,180.00,-22.50,CLOSED,0
667547.468,0,0,0,1.000,1.000,1.000,-90.00,180.00,-22.50,CLOSED,0
667547.471,0,0,0,1.000,1.000,1.000,-90.00,180.00,-22.50,CLOSED,0
667547.474,0,0,0,1.000,1.000,1.000,-90.00,180.00,-22.50,CLOSED,0
667547.477,0,0,0,1.000,1.000,1.000,-90.00,180.00,-22.50,CLOSED,0
667547.481,0,0,0,1.000,1.000,1.000,-90.00,180.00,-22.50,CLOSED,0
667547.484,0,0,0,1.000,1.000,1.000,-90.00,180.00,-22.50,CLOSED,0
667547.488,0,0,0,1.000,0.999,1.000,-90.00,180.00,-22.50,CLOSED,0
667547.491,0,0,0,1.000,0.998,1.000,-90.00,180.00,-22.50,CLOSED,0
667547.495,0,0,0,1.000,0.994,1.000,-90.00,180.00,-22.50,CLOSED,0
667547.499,0,0,0,1.000,0.973,1.000,-90.00,180.00,-22.50,CLOSED,0
667547.504,0,0,0,1.000,0.706,1.000,-90.00,180.00,-22.50,CLOSED,0
667547.509,0,0,0,1.000,0.835,1.000,-90.00,180.00,-22.50,CLOSED,0
667547.515,0,0,0,1.000,0.947,1.000,-90.00,180.00,-22.50,CLOSED,0
667547.520,0,0,0,1.000,0.962,1.000,-90.00,180.00,-22.50,CLOSED,0
667547.525,0,0,0,1.000,0.954,1.000,-90.00,180.00,-22.50,CLOSED,0
667547.530,0,0,0,1.000,0.886,1.000,-90.00,180.00,-22.50,CLOSED,0
667547.535,0,0,0,1.000,0.583,1.000,-90.00,180.00,-22.50,CLOSED,0
667547.538,0,0,0,1.000,0.745,1.000,-90.00,180.00,-22.50,CLOSED,0
667547.542,0,0,0,1.000,0.909,1.000,-90.00,180.00,-22.50,CLOSED,0
667547.546,0,0,0,1.000,0.961,0.999,-90.00,180.00,-22.50,CLOSED,0
667547.549,0,0,0,1.000,0.986,0.998,-90.00,180.00,-22.50,CLOSED,0
667547.552,0,0,0,1.000,0.994,0.997,-90.00,180.00,-22.50,CLOSED,0
667547.555,0,0,0,1.000,0.996,0.996,-90.00,180.00,-22.50,CLOSED,0
667547.559,0,0,0,1.000,0.997,0.995,-90.00,180.00,-22.50,CLOSED,0
667547.562,0,0,0,1.000,0.998,0.995,-90.00,180.00,-22.50,CLOSED,0
667547.567,0,0,0,1.000,0.998,0.994,-90.00,180.00,-22.50,CLOSED,0
667547.571,0,0,0,1.000,0.998,0.994,-90.00,180.00,-22.50,CLOSED,0
667547.575,0,0,0,1.000,0.999,0.992,-90.00,180.00,-22.50,CLOSED,0
667547.578,0,0,0,1.000,0.999,0.987,-90.00,180.00,-22.50,CLOSED,0
667547.582,0,0,0,1.000,0.999,0.979,-90.00,180.00,-22.50,CLOSED,0
667547.586,0,0,0,1.000,0.999,0.969,-90.00,180.00,-22.50,CLOSED,0
667547.591,0,0,0,1.000,1.000,0.968,-90.00,180.00,-22.50,CLOSED,0
667547.596,0,0,0,1.000,1.000,0.970,-90.00,180.00,-22.50,CLOSED,0
667547.600,0,0,0,1.000,1.000,0.976,-90.00,180.00,-22.50,CLOSED,0
667547.605,0,0,0,1.000,1.000,0.979,-90.00,180.00,-22.50,CLOSED,0
667547.610,0,0,0,1.000,0.999,0.980,-90.00,180.00,-22.50,CLOSED,0
667547.614,0,0,0,1.000,0.999,0.982,-90.00,180.00,-22.50,CLOSED,0
667547.619,0,0,0,1.000,0.998,0.983,-90.00,180.00,-22.50,CLOSED,0
667547.623,0,0,0,1.000,0.994,0.979,-90.00,180.00,-22.50,CLOSED,0
667547.627,0,0,0,1.000,0.980,0.973,-90.00,180.00,-22.50,CLOSED,0
667547.630,0,0,0,1.000,0.943,0.951,-90.00,180.00,-22.50,CLOSED,0
667547.634,0,0,0,1.000,0.888,0.924,-90.00,180.00,-22.50,CLOSED,0
667547.637,0,0,0,1.000,0.865,0.897,-90.00,180.00,-22.50,CLOSED,0
667547.641,0,0,0,1.000,0.869,0.887,-90.00,180.00,-22.50,CLOSED,0
667547.644,0,0,0,1.000,0.854,0.901,-90.00,180.00,-22.50,CLOSED,0
667547.647,0,0,0,1.000,0.831,0.929,-90.00,180.00,-22.50,CLOSED,0
667547.651,0,0,0,1.000,0.825,0.960,-90.00,180.00,-22.50,CLOSED,0
667547.654,0,0,0,1.000,0.859,0.977,-90.00,180.00,-22.50,CLOSED,0
667547.657,0,0,0,1.000,0.906,0.988,-90.00,180.00,-22.50,CLOSED,0
667547.660,0,0,0,1.000,0.942,0.992,-90.00,180.00,-22.50,CLOSED,0
667547.664,0,0,0,1.000,0.969,0.995,-90.00,180.00,-22.50,CLOSED,0
667547.667,0,0,0,1.000,0.981,0.997,-90.00,180.00,-22.50,CLOSED,0
667547.671,0,0,0,1.000,0.989,0.998,-90.00,180.00,-22.50,CLOSED,0
667547.674,0,0,0,1.000,0.992,0.998,-90.00,180.00,-22.50,CLOSED,0
667547.679,0,0,0,1.000,0.995,0.998,-90.00,180.00,-22.50,CLOSED,0
667547.682,0,0,0,1.000,0.996,0.998,-90.00,180.00,-22.50,CLOSED,0
667547.686,0,0,0,1.000,0.997,0.998,-90.00,180.00,-22.50,CLOSED,0
667547.689,0,0,0,1.000,0.996,0.997,-90.00,180.00,-22.50,CLOSED,0
667547.693,0,0,0,1.000,0.995,0.996,-90.00,180.00,-22.50,CLOSED,0
667547.696,0,0,0,1.000,0.989,0.994,-90.00,180.00,-22.50,CLOSED,0
667547.700,0,0,0,1.000,0.962,0.989,-90.00,180.00,-22.50,CLOSED,0
667547.703,0,0,0,1.000,0.843,0.982,-90.00,180.00,-22.50,CLOSED,0
667547.706,0,0,0,1.000,0.502,0.973,-90.00,180.00,-22.50,CLOSED,0
667547.709,0,0,0,1.000,0.804,0.970,-90.00,180.00,-22.50,CLOSED,0
667547.713,0,0,0,1.000,0.892,0.972,-90.00,180.00,-22.50,CLOSED,0
667547.716,0,0,0,1.000,0.892,0.979,-90.00,180.00,-22.50,CLOSED,0
667547.719,0,0,0,1.000,0.818,0.984,-90.00,180.00,-22.50,CLOSED,0
667547.723,0,0,0,1.000,0.657,0.989,-90.00,180.00,-22.50,CLOSED,0
667547.726,0,0,0,1.000,0.515,0.990,-90.00,180.00,-22.50,CLOSED,0
667547.729,0,0,0,1.000,0.650,0.990,-90.00,180.00,-22.50,CLOSED,0
667547.733,0,0,0,1.000,0.754,0.989,-90.00,180.00,-22.50,CLOSED,0
667547.736,0,0,0,1.000,0.770,0.988,-90.00,180.00,-22.50,CLOSED,0
667547.740,0,0,0,1.000,0.735,0.985,-90.00,180.00,-22.50,CLOSED,0
667547.743,0,0,0,1.000,0.698,0.983,-90.00,180.00,-22.50,CLOSED,0
667547.747,0,0,0,1.000,0.645,0.984,-90.00,180.00,-22.50,CLOSED,0
667547.750,0,0,0,1.000,0.608,0.985,-90.00,180.00,-22.50,CLOSED,0
667547.753,0,0,0,1.000,0.618,0.989,-90.00,180.00,-22.50,CLOSED,0
667547.757,0,0,0,1.000,0.718,0.990,-90.00,180.00,-22.50,CLOSED,0
667547.760,0,0,0,1.000,0.775,0.992,-90.00,180.00,-22.50,CLOSED,0
667547.764,0,0,0,1.000,0.844,0.990,-90.00,180.00,-22.50,CLOSED,0
667547.767,0,0,0,1.000,0.898,0.991,-90.00,180.00,-22.50,CLOSED,0
667547.770,0,0,0,1.000,0.915,0.989,-90.00,180.00,-22.50,CLOSED,0
667547.774,0,0,0,1.000,0.913,0.986,-90.00,180.00,-22.50,CLOSED,0
667547.777,0,0,0,1.000,0.908,0.983,-90.00,180.00,-22.50,CLOSED,0
667547.781,0,0,0,1.000,0.883,0.972,-90.00,180.00,-22.50,CLOSED,0
667547.784,0,0,0,1.000,0.875,0.955,-90.00,180.00,-22.50,CLOSED,0
667547.787,0,0,0,1.000,0.937,0.949,-90.00,180.00,-22.50,CLOSED,0
667547.791,0,0,0,1.000,0.978,0.950,-90.00,180.00,-22.50,CLOSED,0
667547.795,0,0,0,1.000,0.992,0.962,-90.00,180.00,-22.50,CLOSED,0
667547.799,0,0,0,1.000,0.996,0.970,-90.00,180.00,-22.50,CLOSED,0
667547.803,0,0,0,1.000,0.997,0.974,-90.00,180.00,-22.50,CLOSED,0
667547.807,0,0,0,1.000,0.998,0.978,-90.00,180.00,-22.50,CLOSED,0
667547.810,0,0,0,1.000,0.998,0.979,-90.00,180.00,-22.50,CLOSED,0
667547.815,0,0,0,1.000,0.997,0.977,-90.00,180.00,-22.50,CLOSED,0
667547.820,0,0,0,1.000,0.994,0.975,-90.00,180.00,-22.50,CLOSED,0
667547.826,0,0,0,1.000,0.987,0.974,-90.00,180.00,-22.50,CLOSED,0
667547.832,0,0,0,1.000,0.955,0.970,-90.00,180.00,-22.50,CLOSED,0
667547.836,0,0,0,1.000,0.852,0.962,-90.00,180.00,-22.50,CLOSED,0
667547.840,0,0,0,1.000,0.690,0.959,-90.00,180.00,-22.50,CLOSED,0
667547.844,0,0,0,1.000,0.531,0.957,-90.00,180.00,-22.50,CLOSED,0
667547.848,0,0,0,1.000,0.596,0.954,-90.00,180.00,-22.50,CLOSED,0
667547.851,0,0,0,1.000,0.509,0.960,-90.00,180.00,-22.50,CLOSED,0
667547.854,0,0,0,1.000,0.617,0.963,-90.00,180.00,-22.50,CLOSED,0
667547.858,0,0,0,1.000,0.725,0.964,-90.00,180.00,-22.50,CLOSED,0
667547.861,0,0,0,1.000,0.760,0.968,-90.00,180.00,-22.50,CLOSED,0
667547.864,0,0,0,1.000,0.755,0.971,-90.00,180.00,-22.50,CLOSED,0
667547.867,0,0,0,1.000,0.711,0.976,-90.00,180.00,-22.50,CLOSED,0
667547.871,0,0,0,1.000,0.637,0.980,-90.00,180.00,-22.50,CLOSED,0
667547.874,0,0,0,1.000,0.555,0.980,-90.00,180.00,-22.50,CLOSED,0
667547.877,0,0,0,1.000,0.519,0.983,-90.00,180.00,-22.50,CLOSED,0
667547.881,0,0,0,1.000,0.550,0.983,-90.00,180.00,-22.50,CLOSED,0
667547.885,0,0,0,1.000,0.720,0.981,-90.00,180.00,-22.50,CLOSED,0
667547.890,0,0,0,1.000,0.863,0.972,-90.00,180.00,-22.50,CLOSED,0
667547.895,0,0,0,1.000,0.956,0.953,-90.00,180.00,-22.50,CLOSED,0
667547.901,0,0,0,1.000,0.980,0.932,-90.00,180.00,-22.50,CLOSED,0
667547.905,0,0,0,1.000,0.987,0.903,-90.00,180.00,-22.50,CLOSED,0
667547.909,0,0,0,1.000,0.988,0.892,-90.00,180.00,-22.50,CLOSED,0
667547.913,0,0,0,1.000,0.986,0.895,-90.00,180.00,-22.50,CLOSED,0
667547.917,0,0,0,1.000,0.977,0.924,-90.00,180.00,-22.50,CLOSED,0
667547.921,0,0,0,1.000,0.950,0.968,-90.00,180.00,-22.50,CLOSED,0
667547.924,0,0,0,1.000,0.926,0.987,-90.00,180.00,-22.50,CLOSED,0
667547.927,0,0,0,1.000,0.941,0.996,-90.00,180.00,-22.50,CLOSED,0
667547.931,0,0,0,1.000,0.975,0.999,-90.00,180.00,-22.50,CLOSED,0
667547.934,0,0,0,1.000,0.987,0.999,-90.00,180.00,-22.50,CLOSED,0
667547.938,0,0,0,1.000,0.995,0.999,-90.00,180.00,-22.50,CLOSED,0
667547.941,0,0,0,1.000,0.999,0.999,-90.00,180.00,-22.50,CLOSED,0
667547.944,0,0,0,1.000,1.000,0.999,-90.00,180.00,-22.50,CLOSED,0
667547.948,0,0,0,1.000,1.000,0.999,-90.00,180.00,-22.50,CLOSED,0
667547.951,0,0,0,1.000,1.000,0.999,-90.00,180.00,-22.50,CLOSED,0
667547.954,0,0,0,1.000,1.000,1.000,-90.00,180.00,-22.50,CLOSED,0
667547.957,0,0,0,1.000,1.000,1.000,-90.00,180.00,-22.50,CLOSED,0
667547.961,0,0,0,1.000,1.000,1.000,-90.00,180.00,-22.50,CLOSED,0
667547.964,0,0,0,1.000,1.000,1.000,-90.00,180.00,-22.50,CLOSED,0
667547.968,0,0,0,1.000,0.998,1.000,-90.00,180.00,-22.50,CLOSED,0
667547.971,0,0,0,0.999,0.998,1.000,-90.00,180.00,-22.50,CLOSED,0
667547.974,0,0,0,0.999,0.998,1.000,-90.00,180.00,-22.50,CLOSED,0
667547.978,0,0,0,0.999,0.999,1.000,-90.00,180.00,-22.50,CLOSED,0
667547.981,0,0,0,1.000,1.000,1.000,-90.00,180.00,-22.50,CLOSED,0
667547.984,0,0,0,1.000,1.000,1.000,-90.00,180.00,-22.50,CLOSED,0
667547.988,0,0,0,1.000,1.000,1.000,-90.00,180.00,-22.50,CLOSED,0
667547.991,0,0,0,1.000,1.000,1.000,-90.00,180.00,-22.50,CLOSED,0
667547.995,0,0,0,1.000,1.000,1.000,-90.00,180.00,-22.50,CLOSED,0
667547.999,0,0,0,1.000,1.000,1.000,-90.00,180.00,-22.50,CLOSED,0
667548.002,0,0,0,1.000,1.000,1.000,-90.00,180.00,-22.50,CLOSED,0
667548.005,0,0,0,1.000,1.000,1.000,-90.00,180.00,-22.50,CLOSED,0
667548.008,0,0,0,1.000,1.000,1.000,-90.00,180.00,-22.50,CLOSED,0
667548.012,0,0,0,1.000,1.000,1.000,-90.00,180.00,-22.50,CLOSED,0
667548.016,0,0,0,1.000,1.000,1.000,-90.00,180.00,-22.50,CLOSED,0
667548.021,0,0,0,1.000,1.000,1.000,-90.00,180.00,-22.50,CLOSED,0
667548.024,0,0,0,1.000,1.000,1.000,-90.00,180.00,-22.50,CLOSED,0
667548.028,0,0,0,1.000,1.000,1.000,-90.00,180.00,-22.50,CLOSED,0
667548.032,0,0,0,1.000,1.000,1.000,-90.00,180.00,-22.50,CLOSED,0
667548.036,0,0,0,1.000,1.000,1.000,-90.00,180.00,-22.50,CLOSED,0
667548.040,0,0,0,1.000,1.000,1.000,-90.00,180.00,-22.50,CLOSED,0
667548.045,0,0,0,1.000,1.000,1.000,-90.00,180.00,-22.50,CLOSED,0
667548.050,0,0,0,1.000,1.000,1.000,-90.00,180.00,-22.50,CLOSED,0
667548.055,0,0,0,1.000,1.000,1.000,-90.00,180.00,-22.50,CLOSED,0
667548.059,0,0,0,1.000,1.000,1.000,-90.00,180.00,-22.50,CLOSED,0
667548.064,0,0,0,1.000,1.000,1.000,-90.00,180.00,-22.50,CLOSED,0
667548.068,0,0,0,1.000,1.000,1.000,-90.00,180.00,-22.50,CLOSED,0
667548.073,0,0,0,1.000,1.000,1.000,-90.00,180.00,-22.50,CLOSED,0
667548.078,0,0,0,1.000,1.000,1.000,-90.00,180.00,-22.50,CLOSED,0
667548.082,0,0,0,1.000,1.000,1.000,-90.00,180.00,-22.50,CLOSED,0
667548.085,0,0,0,1.000,1.000,1.000,-90.00,180.00,-22.50,CLOSED,0
667548.089,0,0,0,1.000,1.000,1.000,-90.00,180.00,-22.50,CLOSED,0
667548.093,0,0,0,1.000,1.000,1.000,-90.00,180.00,-22.50,CLOSED,0
667548.096,0,0,0,1.000,1.000,1.000,-90.00,180.00,-22.50,CLOSED,0
667548.100,0,0,0,1.000,1.000,1.000,-90.00,180.00,-22.50,CLOSED,0
667548.104,0,0,0,1.000,1.000,1.000,-90.00,180.00,-22.50,CLOSED,0
667548.107,0,0,0,1.000,1.000,1.000,-90.00,180.00,-22.50,CLOSED,0
667548.111,0,0,0,1.000,1.000,1.000,-90.00,180.00,-22.50,CLOSED,0
667548.116,0,0,0,1.000,1.000,1.000,-90.00,180.00,-22.50,CLOSED,0
667548.119,0,0,0,1.000,1.000,1.000,-90.00,180.00,-22.50,CLOSED,0
667548.123,0,0,0,1.000,1.000,1.000,-90.00,180.00,-22.50,CLOSED,0
667548.128,0,0,0,1.000,1.000,1.000,-90.00,180.00,-22.50,CLOSED,0
667548.133,0,0,0,1.000,1.000,1.000,-90.00,180.00,-22.50,CLOSED,0
667548.139,0,0,0,1.000,1.000,1.000,-90.00,180.00,-22.50,CLOSED,0
667548.144,0,0,0,1.000,1.000,1.000,-90.00,180.00,-22.50,CLOSED,0
667548.149,0,0,0,1.000,1.000,1.000,-90.00,180.00,-22.50,CLOSED,0
667548.154,0,0,0,1.000,1.000,1.000,-90.00,180.00,-22.50,CLOSED,0
667548.158,0,0,0,1.000,1.000,1.000,-90.00,180.00,-22.50,CLOSED,0
667548.162,0,0,0,1.000,1.000,1.000,-90.00,180.00,-22.50,CLOSED,0
667548.167,0,0,0,1.000,1.000,1.000,-90.00,180.00,-22.50,CLOSED,0
667548.171,0,0,0,1.000,1.000,1.000,-90.00,180.00,-22.50,CLOSED,0
667548.174,0,0,0,1.000,1.000,1.000,-90.00,180.00,-22.50,CLOSED,0
667548.177,0,0,0,1.000,1.000,1.000,-90.00,180.00,-22.50,CLOSED,0
667548.180,0,0,0,1.000,1.000,1.000,-90.00,180.00,-22.50,CLOSED,0
667548.184,0,0,0,1.000,1.000,1.000,-90.00,180.00,-22.50,CLOSED,0
667548.187,0,0,0,1.000,1.000,1.000,-90.00,180.00,-22.50,CLOSED,0
667548.191,0,0,0,1.000,1.000,1.000,-90.00,180.00,-22.50,CLOSED,0
667548.196,0,0,0,1.000,1.000,1.000,-90.00,180.00,-22.50,CLOSED,0
667548.201,0,0,0,1.000,1.000,1.000,-90.00,180.00,-22.50,CLOSED,0
667548.205,0,0,0,1.000,1.000,1.000,-90.00,180.00,-22.50,CLOSED,0
667548.210,0,0,0,1.000,1.000,1.000,-90.00,180.00,-22.50,CLOSED,0
667548.214,0,0,0,1.000,1.000,1.000,-90.00,180.00,-22.50,CLOSED,0
667548.218,0,0,0,1.000,1.000,1.000,-90.00,180.00,-22.50,CLOSED,0
667548.221,0,0,0,1.000,1.000,1.000,-90.00,180.00,-22.50,CLOSED,0
667548.225,0,0,0,1.000,1.000,1.000,-90.00,180.00,-22.50,CLOSED,0
667548.228,0,0,0,1.000,1.000,1.000,-90.00,180.00,-22.50,CLOSED,0
667548.232,0,0,0,1.000,1.000,1.000,-90.00,180.00,-22.50,CLOSED,0
667548.236,0,0,0,1.000,1.000,1.000,-90.00,180.00,-22.50,CLOSED,0
667548.239,0,0,0,1.000,1.000,1.000,-90.00,180.00,-22.50,CLOSED,0
667548.242,0,0,0,1.000,1.000,1.000,-90.00,180.00,-22.50,CLOSED,0
667548.246,0,0,0,1.000,1.000,1.000,-90.00,180.00,-22.50,CLOSED,0
667548.250,0,0,0,1.000,1.000,1.000,-90.00,180.00,-22.50,CLOSED,0
667548.254,0,0,0,1.000,1.000,1.000,-90.00,180.00,-22.50,CLOSED,0
667548.257,0,0,0,1.000,1.000,1.000,-90.00,180.00,-22.50,CLOSED,0
667548.261,0,0,0,1.000,1.000,1.000,-90.00,180.00,-22.50,CLOSED,0
667548.264,0,0,0,1.000,1.000,1.000,-90.00,180.00,-22.50,CLOSED,0
667548.267,0,0,0,1.000,1.000,1.000,-90.00,180.00,-22.50,CLOSED,0
667548.270,0,0,0,1.000,1.000,1.000,-90.00,180.00,-22.50,CLOSED,0
667548.273,0,0,0,1.000,1.000,1.000,-90.00,180.00,-22.50,CLOSED,0
667548.277,0,0,0,1.000,1.000,1.000,-90.00,180.00,-22.50,CLOSED,0
667548.280,0,0,0,1.000,1.000,1.000,-90.00,180.00,-22.50,CLOSED,0
667548.284,0,0,0,1.000,1.000,1.000,-90.00,180.00,-22.50,CLOSED,0
667548.288,0,0,0,1.000,1.000,1.000,-90.00,180.00,-22.50,CLOSED,0
667548.292,0,0,0,1.000,1.000,1.000,-90.00,180.00,-22.50,CLOSED,0
667548.295,0,0,0,1.000,1.000,1.000,-90.00,180.00,-22.50,CLOSED,0
667548.298,0,0,0,1.000,1.000,1.000,-90.00,180.00,-22.50,CLOSED,0
667548.302,0,0,0,1.000,1.000,1.000,-90.00,180.00,-22.50,CLOSED,0
667548.305,0,0,0,1.000,1.000,1.000,-90.00,180.00,-22.50,CLOSED,0
667548.309,0,0,0,1.000,1.000,1.000,-90.00,180.00,-22.50,CLOSED,0
667548.312,0,0,0,1.000,1.000,1.000,-90.00,180.00,-22.50,CLOSED,0
667548.315,0,0,0,1.000,1.000,1.000,-90.00,180.00,-22.50,CLOSED,0
667548.318,0,0,0,1.000,1.000,1.000,-90.00,180.00,-22.50,CLOSED,0
667548.322,0,0,0,1.000,1.000,1.000,-90.00,180.00,-22.50,CLOSED,0
667548.325,0,0,0,1.000,1.000,1.000,-90.00,180.00,-22.50,CLOSED,0
667548.329,0,0,0,1.000,1.000,1.000,-90.00,180.00,-22.50,CLOSED,0
667548.332,0,0,0,1.000,1.000,1.000,-90.00,180.00,-22.50,CLOSED,0
667548.335,0,0,0,1.000,1.000,1.000,-90.00,180.00,-22.50,CLOSED,0
667548.339,0,0,0,1.000,1.000,1.000,-90.00,180.00,-22.50,CLOSED,0
667548.342,0,0,0,1.000,1.000,1.000,-90.00,180.00,-22.50,CLOSED,0
667548.345,0,0,0,1.000,1.000,1.000,-90.00,180.00,-22.50,CLOSED,0
667548.349,0,0,0,1.000,1.000,1.000,-90.00,180.00,-22.50,CLOSED,0
667548.355,0,0,0,1.000,1.000,1.000,-90.00,180.00,-22.50,CLOSED,0
667548.359,0,0,0,1.000,1.000,1.000,-90.00,180.00,-22.50,CLOSED,0
667548.363,0,0,0,1.000,1.000,1.000,-90.00,180.00,-22.50,CLOSED,0
667548.369,0,0,0,1.000,1.000,1.000,-90.00,180.00,-22.50,CLOSED,0
667548.372,0,0,0,1.000,1.000,1.000,-90.00,180.00,-22.50,CLOSED,0
667548.376,0,0,0,1.000,1.000,1.000,-90.00,180.00,-22.50,CLOSED,0
667548.379,0,0,0,1.000,1.000,1.000,-90.00,180.00,-22.50,CLOSED,0
667548.383,0,0,0,1.000,1.000,1.000,-90.00,180.00,-22.50,CLOSED,0
667548.387,0,0,0,1.000,1.000,1.000,-90.00,180.00,-22.50,CLOSED,0
667548.391,0,0,0,1.000,1.000,1.000,-90.00,180.00,-22.50,CLOSED,0
667548.395,0,0,0,1.000,1.000,1.000,-90.00,180.00,-22.50,CLOSED,0
667548.401,0,0,0,1.000,1.000,1.000,-90.00,180.00,-22.50,CLOSED,0
667548.406,0,0,0,1.000,1.000,1.000,-90.00,180.00,-22.50,CLOSED,0
667548.412,0,0,0,1.000,1.000,1.000,-90.00,180.00,-22.50,CLOSED,0
667548.417,0,0,0,1.000,1.000,1.000,-90.00,180.00,-22.50,CLOSED,0
667548.423,0,0,0,1.000,1.000,1.000,-90.00,180.00,-22.50,CLOSED,0
667548.428,0,0,0,1.000,1.000,1.000,-90.00,180.00,-22.50,CLOSED,0
667548.433,0,0,0,1.000,1.000,1.000,-90.00,180.00,-22.50,CLOSED,0
667548.437,0,0,0,1.000,1.000,1.000,-90.00,180.00,-22.50,CLOSED,0
667548.441,0,0,0,1.000,1.000,1.000,-90.00,180.00,-22.50,CLOSED,0
667548.445,0,0,0,1.000,1.000,1.000,-90.00,180.00,-22.50,CLOSED,0
667548.448,0,0,0,1.000,1.000,1.000,-90.00,180.00,-22.50,CLOSED,0
667548.452,0,0,0,1.000,1.000,1.000,-90.00,180.00,-22.50,CLOSED,0
667548.455,0,0,0,1.000,1.000,1.000,-90.00,180.00,-22.50,CLOSED,0
667548.459,0,0,0,1.000,1.000,1.000,-90.00,180.00,-22.50,CLOSED,0
667548.463,0,0,0,1.000,1.000,1.000,-90.00,180.00,-22.50,CLOSED,0
667548.467,0,0,0,1.000,1.000,1.000,-90.00,180.00,-22.50,CLOSED,0
667548.472,0,0,0,1.000,1.000,1.000,-90.00,180.00,-22.50,CLOSED,0
667548.476,0,0,0,1.000,1.000,1.000,-90.00,180.00,-22.50,CLOSED,0
667548.479,0,0,0,1.000,1.000,1.000,-90.00,180.00,-22.50,CLOSED,0
667548.483,0,0,0,1.000,1.000,1.000,-90.00,180.00,-22.50,CLOSED,0
667548.487,0,0,0,1.000,1.000,1.000,-90.00,180.00,-22.50,CLOSED,0
667548.491,0,0,0,1.000,1.000,1.000,-90.00,180.00,-22.50,CLOSED,0
667548.495,0,0,0,1.000,1.000,1.000,-90.00,180.00,-22.50,CLOSED,0
667548.499,0,0,0,1.000,1.000,1.000,-90.00,180.00,-22.50,CLOSED,0
667548.502,0,0,0,1.000,1.000,1.000,-90.00,180.00,-22.50,CLOSED,0
667548.506,0,0,0,1.000,1.000,1.000,-90.00,180.00,-22.50,CLOSED,0
667548.509,0,0,0,1.000,1.000,1.000,-90.00,180.00,-22.50,CLOSED,0
667548.512,0,0,0,1.000,1.000,1.000,-90.00,180.00,-22.50,CLOSED,0
667548.515,0,0,0,1.000,1.000,1.000,-90.00,180.00,-22.50,CLOSED,0
667548.518,0,0,0,1.000,1.000,1.000,-90.00,180.00,-22.50,CLOSED,0
667548.522,0,0,0,1.000,1.000,1.000,-90.00,180.00,-22.50,CLOSED,0
667548.526,0,0,0,1.000,1.000,1.000,-90.00,180.00,-22.50,CLOSED,0
667548.530,0,0,0,0.999,1.000,1.000,-90.00,180.00,-22.50,CLOSED,0
667548.534,0,0,0,0.992,1.000,1.000,-90.00,180.00,-22.50,CLOSED,0
667548.537,0,0,0,0.991,1.000,1.000,-90.00,180.00,-22.50,CLOSED,0
667548.541,0,0,0,0.997,1.000,1.000,-90.00,180.00,-22.50,CLOSED,0
667548.544,0,0,0,0.992,1.000,1.000,-90.00,180.00,-22.50,CLOSED,0
667548.548,0,0,0,0.989,1.000,1.000,-90.00,180.00,-22.50,CLOSED,0
667548.551,0,0,0,0.995,1.000,1.000,-90.00,180.00,-22.50,CLOSED,0
667548.555,0,0,0,0.987,1.000,1.000,-90.00,180.00,-22.50,CLOSED,0
667548.558,0,0,0,0.986,1.000,1.000,-90.00,180.00,-22.50,CLOSED,0
667548.561,0,0,0,0.989,1.000,1.000,-90.00,180.00,-22.50,CLOSED,0
667548.565,0,0,0,0.998,0.999,1.000,-90.00,180.00,-22.50,CLOSED,0
667548.568,0,0,0,0.999,0.950,1.000,-90.00,180.00,-22.50,CLOSED,0
667548.572,0,0,0,0.999,0.765,1.000,-90.00,180.00,-22.50,CLOSED,0
667548.576,0,0,0,0.995,0.989,1.000,-90.00,180.00,-22.50,CLOSED,0
667548.581,0,0,0,0.985,0.999,1.000,-90.00,180.00,-22.50,CLOSED,0
667548.585,0,0,0,0.989,1.000,1.000,-90.00,180.00,-22.50,CLOSED,0
667548.588,0,0,0,0.994,1.000,1.000,-90.00,180.00,-22.50,CLOSED,0
667548.592,0,0,0,0.997,1.000,1.000,-90.00,180.00,-22.50,CLOSED,0
667548.595,0,0,0,0.999,1.000,1.000,-90.00,180.00,-22.50,CLOSED,0
667548.599,0,0,0,0.999,1.000,1.000,-90.00,180.00,-22.50,CLOSED,0
667548.603,0,0,0,0.996,1.000,1.000,-90.00,180.00,-22.50,CLOSED,0
667548.607,0,0,0,0.999,1.000,1.000,-90.00,180.00,-22.50,CLOSED,0
667548.611,0,0,0,1.000,1.000,1.000,-90.00,180.00,-22.50,CLOSED,0
667548.614,0,0,0,1.000,1.000,1.000,-90.00,180.00,-22.50,CLOSED,0
667548.618,0,0,0,1.000,1.000,0.999,-90.00,180.00,-22.50,CLOSED,0
667548.622,0,0,0,1.000,1.000,0.998,-90.00,180.00,-22.50,CLOSED,0
667548.626,0,0,0,1.000,1.000,0.996,-90.00,180.00,-22.50,CLOSED,0
667548.629,0,0,0,1.000,1.000,0.994,-90.00,180.00,-22.50,CLOSED,0
667548.633,0,0,0,1.000,1.000,0.993,-90.00,180.00,-22.50,CLOSED,0
667548.637,0,0,0,1.000,1.000,0.992,-90.00,180.00,-22.50,CLOSED,0
667548.640,0,0,0,1.000,1.000,0.990,-90.00,180.00,-22.50,CLOSED,0
667548.644,0,0,0,1.000,1.000,0.988,-90.00,180.00,-22.50,CLOSED,0
667548.648,0,0,0,1.000,1.000,0.987,-90.00,180.00,-22.50,CLOSED,0
667548.652,0,0,0,1.000,1.000,0.986,-90.00,180.00,-22.50,CLOSED,0
667548.657,0,0,0,1.000,1.000,0.986,-90.00,180.00,-22.50,CLOSED,0
667548.662,0,0,0,1.000,1.000,0.989,-90.00,180.00,-22.50,CLOSED,0
667548.667,0,0,0,1.000,1.000,0.991,-90.00,180.00,-22.50,CLOSED,0
667548.671,0,0,0,1.000,1.000,0.993,-90.00,180.00,-22.50,CLOSED,0
667548.676,0,0,0,1.000,0.999,0.994,-90.00,180.00,-22.50,CLOSED,0
667548.680,0,0,0,1.000,0.999,0.994,-90.00,180.00,-22.50,CLOSED,0
667548.684,0,0,0,1.000,0.999,0.994,-90.00,180.00,-22.50,CLOSED,0
667548.687,0,0,0,1.000,0.999,0.994,-90.00,180.00,-22.50,CLOSED,0
667548.692,0,0,0,1.000,0.999,0.993,-90.00,180.00,-22.50,CLOSED,0
667548.696,0,0,0,1.000,0.999,0.993,-90.00,180.00,-22.50,CLOSED,0
667548.699,0,0,0,1.000,0.999,0.991,-90.00,180.00,-22.50,CLOSED,0
667548.703,0,0,0,1.000,0.999,0.989,-90.00,180.00,-22.50,CLOSED,0
667548.706,0,0,0,1.000,1.000,0.989,-90.00,180.00,-22.50,CLOSED,0
667548.710,0,0,0,1.000,1.000,0.988,-90.00,180.00,-22.50,CLOSED,0
667548.713,0,0,0,1.000,1.000,0.991,-90.00,180.00,-22.50,CLOSED,0
667548.716,0,0,0,1.000,1.000,0.995,-90.00,180.00,-22.50,CLOSED,0
667548.720,0,0,0,1.000,1.000,0.997,-90.00,180.00,-22.50,CLOSED,0
667548.724,0,0,0,1.000,1.000,0.998,-90.00,180.00,-22.50,CLOSED,0
667548.729,0,0,0,1.000,1.000,0.999,-90.00,180.00,-22.50,CLOSED,0
667548.734,0,0,0,1.000,1.000,0.999,-90.00,180.00,-22.50,CLOSED,0
667548.739,0,0,0,1.000,1.000,0.999,-90.00,180.00,-22.50,CLOSED,0
667548.743,0,0,0,1.000,1.000,0.999,-90.00,180.00,-22.50,CLOSED,0
667548.747,0,0,0,1.000,1.000,0.999,-90.00,180.00,-22.50,CLOSED,0
667548.750,0,0,0,1.000,1.000,0.998,-90.00,180.00,-22.50,CLOSED,0
667548.754,0,0,0,1.000,1.000,0.997,-90.00,180.00,-22.50,CLOSED,0
667548.757,0,0,0,1.000,1.000,0.994,-90.00,180.00,-22.50,CLOSED,0
667548.760,0,0,0,1.000,0.999,0.988,-90.00,180.00,-22.50,CLOSED,0
667548.763,0,0,0,1.000,0.999,0.982,-90.00,180.00,-22.50,CLOSED,0
667548.767,0,0,0,1.000,0.998,0.985,-90.00,180.00,-22.50,CLOSED,0
667548.771,0,0,0,1.000,0.997,0.991,-90.00,180.00,-22.50,CLOSED,0
667548.774,0,0,0,1.000,0.997,0.995,-90.00,180.00,-22.50,CLOSED,0
667548.777,0,0,0,1.000,0.996,0.997,-90.00,180.00,-22.50,CLOSED,0
667548.780,0,0,0,1.000,0.995,0.998,-90.00,180.00,-22.50,CLOSED,0
667548.784,0,0,0,1.000,0.996,0.999,-90.00,180.00,-22.50,CLOSED,0
667548.788,0,0,0,1.000,0.997,0.998,-90.00,180.00,-22.50,CLOSED,0
667548.792,0,0,0,1.000,0.997,0.998,-90.00,180.00,-22.50,CLOSED,0
667548.797,0,0,0,1.000,0.998,0.997,-90.00,180.00,-22.50,CLOSED,0
667548.802,0,0,0,1.000,0.998,0.994,-90.00,180.00,-22.50,CLOSED,0
667548.805,0,0,0,1.000,0.999,0.988,-90.00,180.00,-22.50,CLOSED,0
667548.808,0,0,0,1.000,0.999,0.979,-90.00,180.00,-22.50,CLOSED,0
667548.811,0,0,0,1.000,0.999,0.976,-90.00,180.00,-22.50,CLOSED,0
667548.815,0,0,0,1.000,0.999,0.981,-90.00,180.00,-22.50,CLOSED,0
667548.818,0,0,0,1.000,0.999,0.984,-90.00,180.00,-22.50,CLOSED,0
667548.822,0,0,0,1.000,0.998,0.988,-90.00,180.00,-22.50,CLOSED,0
667548.825,0,0,0,1.000,0.998,0.993,-90.00,180.00,-22.50,CLOSED,0
667548.830,0,0,0,1.000,0.998,0.995,-90.00,180.00,-22.50,CLOSED,0
667548.833,0,0,0,1.000,0.998,0.997,-90.00,180.00,-22.50,CLOSED,0
667548.837,0,0,0,1.000,0.999,0.998,-90.00,180.00,-22.50,CLOSED,0
667548.840,0,0,0,1.000,0.999,0.998,-90.00,180.00,-22.50,CLOSED,0
667548.843,0,0,0,1.000,0.999,0.999,-90.00,180.00,-22.50,CLOSED,0
667548.847,0,0,0,1.000,0.999,0.999,-90.00,180.00,-22.50,CLOSED,0
667548.850,0,0,0,1.000,1.000,0.999,-90.00,180.00,-22.50,CLOSED,0
667548.853,0,0,0,1.000,1.000,0.998,-90.00,180.00,-22.50,CLOSED,0
667548.857,0,0,0,1.000,1.000,0.998,-90.00,180.00,-22.50,CLOSED,0
667548.860,0,0,0,1.000,1.000,0.998,-90.00,180.00,-22.50,CLOSED,0
667548.864,0,0,0,1.000,1.000,0.999,-90.00,180.00,-22.50,CLOSED,0
667548.867,0,0,0,1.000,1.000,0.999,-90.00,180.00,-22.50,CLOSED,0
667548.871,0,0,0,1.000,1.000,1.000,-90.00,180.00,-22.50,CLOSED,0
667548.874,0,0,0,1.000,1.000,1.000,-90.00,180.00,-22.50,CLOSED,0
667548.877,0,0,0,1.000,1.000,1.000,-90.00,180.00,-22.50,CLOSED,0
667548.881,0,0,0,1.000,1.000,1.000,-90.00,180.00,-22.50,CLOSED,0
667548.884,0,0,0,1.000,1.000,1.000,-90.00,180.00,-22.50,CLOSED,0
667548.888,0,0,0,1.000,1.000,1.000,-90.00,180.00,-22.50,CLOSED,0
667548.891,0,0,0,1.000,1.000,1.000,-90.00,180.00,-22.50,CLOSED,0
667548.895,0,0,0,1.000,1.000,1.000,-90.00,180.00,-22.50,CLOSED,0
667548.899,0,0,0,1.000,1.000,1.000,-90.00,180.00,-22.50,CLOSED,0
667548.903,0,0,0,1.000,1.000,1.000,-90.00,180.00,-22.50,CLOSED,0
667548.908,0,0,0,1.000,1.000,0.999,-90.00,180.00,-22.50,CLOSED,0
667548.912,0,0,0,1.000,1.000,0.999,-90.00,180.00,-22.50,CLOSED,0
667548.916,0,0,0,1.000,1.000,0.999,-90.00,180.00,-22.50,CLOSED,0
667548.919,0,0,0,1.000,1.000,0.999,-90.00,180.00,-22.50,CLOSED,0
667548.922,0,0,0,1.000,1.000,0.999,-90.00,180.00,-22.50,CLOSED,0
667548.925,0,0,0,1.000,1.000,0.999,-90.00,180.00,-22.50,CLOSED,0
667548.929,0,0,0,1.000,1.000,0.999,-90.00,180.00,-22.50,CLOSED,0
667548.933,0,0,0,1.000,1.000,0.999,-90.00,180.00,-22.50,CLOSED,0
667548.936,0,0,0,1.000,1.000,0.999,-90.00,180.00,-22.50,CLOSED,0
667548.941,0,0,0,1.000,1.000,0.999,-90.00,180.00,-22.50,CLOSED,0
667548.945,0,0,0,1.000,1.000,0.998,-90.00,180.00,-22.50,CLOSED,0
667548.950,0,0,0,1.000,1.000,0.996,-90.00,180.00,-22.50,CLOSED,0
667548.954,0,0,0,1.000,0.999,0.992,-90.00,180.00,-22.50,CLOSED,0
667548.959,0,0,0,1.000,0.998,0.985,-90.00,180.00,-22.50,CLOSED,0
667548.963,0,0,0,1.000,0.988,0.978,-90.00,180.00,-22.50,CLOSED,0
667548.967,0,0,0,1.000,0.924,0.974,-90.00,180.00,-22.50,CLOSED,0
667548.971,0,0,0,1.000,0.623,0.976,-90.00,180.00,-22.50,CLOSED,0
667548.975,0,0,0,1.000,0.959,0.989,-90.00,180.00,-22.50,CLOSED,0
667548.978,0,0,0,1.000,0.995,0.995,-90.00,180.00,-22.50,CLOSED,0
667548.981,0,0,0,1.000,0.999,0.996,-90.00,180.00,-22.50,CLOSED,0
667548.985,0,0,0,1.000,1.000,0.998,-90.00,180.00,-22.50,CLOSED,0
667548.988,0,0,0,1.000,1.000,0.998,-90.00,180.00,-22.50,CLOSED,0
667548.992,0,0,0,1.000,1.000,0.999,-90.00,180.00,-22.50,CLOSED,0
667548.995,0,0,0,1.000,1.000,0.999,-90.00,180.00,-22.50,CLOSED,0
667548.998,0,0,0,1.000,1.000,0.999,-90.00,180.00,-22.50,CLOSED,0
667549.002,0,0,0,1.000,0.999,1.000,-90.00,180.00,-22.50,CLOSED,0
667549.006,0,0,0,1.000,0.999,1.000,-90.00,180.00,-22.50,CLOSED,0
667549.010,0,0,0,1.000,0.998,1.000,-90.00,180.00,-22.50,CLOSED,0
667549.014,0,0,0,1.000,0.996,1.000,-90.00,180.00,-22.50,CLOSED,0
667549.017,0,0,0,0.999,0.994,1.000,-90.00,180.00,-22.50,CLOSED,0
667549.022,0,0,0,0.999,0.986,1.000,-90.00,180.00,-22.50,CLOSED,0
667549.026,0,0,0,0.999,0.981,1.000,-90.00,180.00,-22.50,CLOSED,0
667549.029,0,0,0,0.999,0.985,1.000,-90.00,180.00,-22.50,CLOSED,0
667549.033,0,0,0,0.999,0.996,1.000,-90.00,180.00,-22.50,CLOSED,0
667549.036,0,0,0,0.997,0.996,1.000,-90.00,180.00,-22.50,CLOSED,0
667549.040,0,0,0,0.997,1.000,1.000,-90.00,180.00,-22.50,CLOSED,0
667549.043,0,0,0,0.994,1.000,1.000,-90.00,180.00,-22.50,CLOSED,0
667549.048,0,0,0,0.998,1.000,1.000,-90.00,180.00,-22.50,CLOSED,0
667549.052,0,0,0,0.999,1.000,1.000,-90.00,180.00,-22.50,CLOSED,0
667549.056,0,0,0,1.000,1.000,1.000,-90.00,180.00,-22.50,CLOSED,0
667549.059,0,0,0,1.000,1.000,1.000,-90.00,180.00,-22.50,CLOSED,0
667549.063,0,0,0,1.000,1.000,1.000,-90.00,180.00,-22.50,CLOSED,0
667549.067,0,0,0,1.000,1.000,1.000,-90.00,180.00,-22.50,CLOSED,0
667549.071,0,0,0,0.999,1.000,1.000,-90.00,180.00,-22.50,CLOSED,0
667549.075,0,0,0,1.000,1.000,1.000,-90.00,180.00,-22.50,CLOSED,0
667549.078,0,0,0,1.000,1.000,1.000,-90.00,180.00,-22.50,CLOSED,0
667549.082,0,0,0,1.000,1.000,1.000,-90.00,180.00,-22.50,CLOSED,0
667549.086,0,0,0,1.000,1.000,1.000,-90.00,180.00,-22.50,CLOSED,0
667549.089,0,0,0,1.000,1.000,1.000,-90.00,180.00,-22.50,CLOSED,0
667549.092,0,0,0,1.000,1.000,1.000,-90.00,180.00,-22.50,CLOSED,0
667549.095,0,0,0,1.000,1.000,1.000,-90.00,180.00,-22.50,CLOSED,0
667549.099,0,0,0,1.000,1.000,1.000,-90.00,180.00,-22.50,CLOSED,0
667549.102,0,0,0,1.000,1.000,1.000,-90.00,180.00,-22.50,CLOSED,0
667549.105,0,0,0,1.000,1.000,1.000,-90.00,180.00,-22.50,CLOSED,0
667549.109,0,0,0,1.000,1.000,1.000,-90.00,180.00,-22.50,CLOSED,0
667549.112,0,0,0,1.000,1.000,1.000,-90.00,180.00,-22.50,CLOSED,0
667549.116,0,0,0,1.000,1.000,1.000,-90.00,180.00,-22.50,CLOSED,0
667549.119,0,0,0,1.000,1.000,1.000,-90.00,180.00,-22.50,CLOSED,0
667549.123,0,0,0,1.000,1.000,1.000,-90.00,180.00,-22.50,CLOSED,0
667549.127,0,0,0,1.000,1.000,1.000,-90.00,180.00,-22.50,CLOSED,0
667549.130,0,0,0,1.000,1.000,1.000,-90.00,180.00,-22.50,CLOSED,0
667549.134,0,0,0,1.000,1.000,1.000,-90.00,180.00,-22.50,CLOSED,0
667549.138,0,0,0,1.000,1.000,1.000,-90.00,180.00,-22.50,CLOSED,0
667549.142,0,0,0,1.000,1.000,1.000,-90.00,180.00,-22.50,CLOSED,0
667549.146,0,0,0,1.000,1.000,1.000,-90.00,180.00,-22.50,CLOSED,0
667549.150,0,0,0,1.000,1.000,1.000,-90.00,180.00,-22.50,CLOSED,0
667549.154,0,0,0,1.000,1.000,1.000,-90.00,180.00,-22.50,CLOSED,0
667549.157,0,0,0,1.000,1.000,1.000,-90.00,180.00,-22.50,CLOSED,0
667549.160,0,0,0,1.000,1.000,1.000,-90.00,180.00,-22.50,CLOSED,0
667549.164,0,0,0,1.000,1.000,1.000,-90.00,180.00,-22.50,CLOSED,0
667549.167,0,0,0,1.000,1.000,1.000,-90.00,180.00,-22.50,CLOSED,0
667549.170,0,0,0,1.000,1.000,1.000,-90.00,180.00,-22.50,CLOSED,0
667549.174,0,0,0,1.000,1.000,1.000,-90.00,180.00,-22.50,CLOSED,0
667549.177,0,0,0,1.000,1.000,1.000,-90.00,180.00,-22.50,CLOSED,0
667549.181,0,0,0,1.000,1.000,1.000,-90.00,180.00,-22.50,CLOSED,0
667549.184,0,0,0,1.000,1.000,1.000,-90.00,180.00,-22.50,CLOSED,0
667549.188,0,0,0,1.000,1.000,1.000,-90.00,180.00,-22.50,CLOSED,0
667549.192,0,0,0,1.000,1.000,1.000,-90.00,180.00,-22.50,CLOSED,0
667549.195,0,0,0,1.000,1.000,1.000,-90.00,180.00,-22.50,CLOSED,0
667549.199,0,0,0,1.000,1.000,1.000,-90.00,180.00,-22.50,CLOSED,0
667549.202,0,0,0,1.000,1.000,1.000,-90.00,180.00,-22.50,CLOSED,0
667549.206,0,0,0,1.000,1.000,1.000,-90.00,180.00,-22.50,CLOSED,0
667549.209,0,0,0,1.000,1.000,1.000,-90.00,180.00,-22.50,CLOSED,0
667549.212,0,0,0,1.000,1.000,1.000,-90.00,180.00,-22.50,CLOSED,0
667549.216,0,0,0,1.000,1.000,1.000,-90.00,180.00,-22.50,CLOSED,0
667549.219,0,0,0,1.000,1.000,1.000,-90.00,180.00,-22.50,CLOSED,0
667549.223,0,0,0,1.000,1.000,1.000,-90.00,180.00,-22.50,CLOSED,0
667549.226,0,0,0,1.000,1.000,1.000,-90.00,180.00,-22.50,CLOSED,0
667549.230,0,0,0,1.000,1.000,1.000,-90.00,180.00,-22.50,CLOSED,0
667549.233,0,0,0,1.000,1.000,1.000,-90.00,180.00,-22.50,CLOSED,0
667549.238,0,0,0,1.000,1.000,1.000,-90.00,180.00,-22.50,CLOSED,0
667549.243,0,0,0,1.000,1.000,1.000,-90.00,180.00,-22.50,CLOSED,0
667549.246,0,0,0,1.000,1.000,1.000,-90.00,180.00,-22.50,CLOSED,0
667549.250,0,0,0,1.000,1.000,1.000,-90.00,180.00,-22.50,CLOSED,0
667549.253,0,0,0,1.000,1.000,1.000,-90.00,180.00,-22.50,CLOSED,0
667549.256,0,0,0,1.000,1.000,1.000,-90.00,180.00,-22.50,CLOSED,0
667549.259,0,0,0,1.000,1.000,1.000,-90.00,180.00,-22.50,CLOSED,0
667549.263,0,0,0,1.000,1.000,1.000,-90.00,180.00,-22.50,CLOSED,0
667549.268,0,0,0,1.000,1.000,1.000,-90.00,180.00,-22.50,CLOSED,0
667549.273,0,0,0,1.000,1.000,1.000,-90.00,180.00,-22.50,CLOSED,0
667549.276,0,0,0,1.000,1.000,1.000,-90.00,180.00,-22.50,CLOSED,0
667549.280,0,0,0,1.000,1.000,1.000,-90.00,180.00,-22.50,CLOSED,0
667549.284,0,0,0,1.000,1.000,1.000,-90.00,180.00,-22.50,CLOSED,0
667549.288,0,0,0,1.000,1.000,1.000,-90.00,180.00,-22.50,CLOSED,0
667549.292,0,0,0,1.000,1.000,1.000,-90.00,180.00,-22.50,CLOSED,0
667549.295,0,0,0,1.000,1.000,1.000,-90.00,180.00,-22.50,CLOSED,0
667549.299,0,0,0,1.000,1.000,1.000,-90.00,180.00,-22.50,CLOSED,0
667549.302,0,0,0,1.000,1.000,1.000,-90.00,180.00,-22.50,CLOSED,0
667549.306,0,0,0,1.000,1.000,1.000,-90.00,180.00,-22.50,CLOSED,0
667549.309,0,0,0,1.000,1.000,1.000,-90.00,180.00,-22.50,CLOSED,0
667549.312,0,0,0,1.000,1.000,1.000,-90.00,180.00,-22.50,CLOSED,0
667549.316,0,0,0,1.000,1.000,1.000,-90.00,180.00,-22.50,CLOSED,0
667549.319,0,0,0,1.000,1.000,1.000,-90.00,180.00,-22.50,CLOSED,0
667549.323,0,0,0,1.000,1.000,1.000,-90.00,180.00,-22.50,CLOSED,0
667549.326,0,0,0,1.000,1.000,1.000,-90.00,180.00,-22.50,CLOSED,0
667549.330,0,0,0,1.000,1.000,1.000,-90.00,180.00,-22.50,CLOSED,0
667549.333,0,0,0,1.000,1.000,1.000,-90.00,180.00,-22.50,CLOSED,0
667549.337,0,0,0,1.000,1.000,1.000,-90.00,180.00,-22.50,CLOSED,0
667549.340,0,0,0,1.000,1.000,1.000,-90.00,180.00,-22.50,CLOSED,0
667549.344,0,0,0,1.000,1.000,1.000,-90.00,180.00,-22.50,CLOSED,0
667549.347,0,0,0,1.000,1.000,1.000,-90.00,180.00,-22.50,CLOSED,0
667549.352,0,0,0,1.000,1.000,1.000,-90.00,180.00,-22.50,CLOSED,0
667549.355,0,0,0,1.000,1.000,1.000,-90.00,180.00,-22.50,CLOSED,0
667549.360,0,0,0,1.000,1.000,1.000,-90.00,180.00,-22.50,CLOSED,0
667549.365,0,0,0,1.000,1.000,1.000,-90.00,180.00,-22.50,CLOSED,0
667549.369,0,0,0,1.000,1.000,1.000,-90.00,180.00,-22.50,CLOSED,0
667549.372,0,0,0,1.000,1.000,1.000,-90.00,180.00,-22.50,CLOSED,0
667549.375,0,0,0,1.000,1.000,1.000,-90.00,180.00,-22.50,CLOSED,0
667549.379,0,0,0,1.000,1.000,1.000,-90.00,180.00,-22.50,CLOSED,0
667549.383,0,0,0,1.000,1.000,1.000,-90.00,180.00,-22.50,CLOSED,0
667549.387,0,0,0,1.000,1.000,1.000,-90.00,180.00,-22.50,CLOSED,0
667549.390,0,0,0,1.000,1.000,1.000,-90.00,180.00,-22.50,CLOSED,0
667549.394,0,0,0,1.000,1.000,1.000,-90.00,180.00,-22.50,CLOSED,0
667549.397,0,0,0,1.000,1.000,1.000,-90.00,180.00,-22.50,CLOSED,0
667549.400,0,0,0,1.000,1.000,1.000,-90.00,180.00,-22.50,CLOSED,0
667549.404,0,0,0,1.000,1.000,1.000,-90.00,180.00,-22.50,CLOSED,0
667549.407,0,0,0,1.000,1.000,1.000,-90.00,180.00,-22.50,CLOSED,0
667549.410,0,0,0,1.000,1.000,1.000,-90.00,180.00,-22.50,CLOSED,0
667549.414,0,0,0,1.000,1.000,1.000,-90.00,180.00,-22.50,CLOSED,0
667549.417,0,0,0,1.000,1.000,1.000,-90.00,180.00,-22.50,CLOSED,0
667549.421,0,0,0,1.000,1.000,1.000,-90.00,180.00,-22.50,CLOSED,0
667549.424,0,0,0,1.000,1.000,1.000,-90.00,180.00,-22.50,CLOSED,0
667549.427,0,0,0,1.000,1.000,1.000,-90.00,180.00,-22.50,CLOSED,0
667549.431,0,0,0,1.000,1.000,1.000,-90.00,180.00,-22.50,CLOSED,0
667549.434,0,0,0,1.000,1.000,1.000,-90.00,180.00,-22.50,CLOSED,0
667549.437,0,0,0,1.000,1.000,1.000,-90.00,180.00,-22.50,CLOSED,0
667549.441,0,0,0,1.000,1.000,1.000,-90.00,180.00,-22.50,CLOSED,0
667549.445,0,0,0,1.000,1.000,1.000,-90.00,180.00,-22.50,CLOSED,0
667549.448,0,0,0,1.000,1.000,1.000,-90.00,180.00,-22.50,CLOSED,0
667549.452,0,0,0,1.000,1.000,1.000,-90.00,180.00,-22.50,CLOSED,0
667549.456,0,0,0,1.000,1.000,1.000,-90.00,180.00,-22.50,CLOSED,0
667549.459,0,0,0,1.000,1.000,1.000,-90.00,180.00,-22.50,CLOSED,0
667549.463,0,0,0,1.000,1.000,1.000,-90.00,180.00,-22.50,CLOSED,0
667549.466,0,0,0,1.000,1.000,1.000,-90.00,180.00,-22.50,CLOSED,0
667549.469,0,0,0,1.000,1.000,1.000,-90.00,180.00,-22.50,CLOSED,0
667549.473,0,0,0,1.000,1.000,1.000,-90.00,180.00,-22.50,CLOSED,0
667549.477,0,0,0,1.000,1.000,1.000,-90.00,180.00,-22.50,CLOSED,0
667549.481,0,0,0,1.000,1.000,1.000,-90.00,180.00,-22.50,CLOSED,0
667549.485,0,0,0,1.000,1.000,1.000,-90.00,180.00,-22.50,CLOSED,0
667549.489,0,0,0,1.000,1.000,1.000,-90.00,180.00,-22.50,CLOSED,0
667549.493,0,0,0,1.000,1.000,1.000,-90.00,180.00,-22.50,CLOSED,0
667549.497,0,0,0,1.000,1.000,1.000,-90.00,180.00,-22.50,CLOSED,0
667549.500,0,0,0,1.000,1.000,1.000,-90.00,180.00,-22.50,CLOSED,0
667549.504,0,0,0,0.999,1.000,1.000,-90.00,180.00,-22.50,CLOSED,0
667549.507,0,0,0,0.858,1.000,1.000,-90.00,180.00,-22.50,CLOSED,0
667549.511,0,0,0,0.484,1.000,1.000,-90.00,180.00,-22.50,CLOSED,0
667549.516,0,0,0,0.481,1.000,1.000,-90.00,180.00,-22.50,CLOSED,0
667549.519,0,0,0,0.604,1.000,1.000,-90.00,180.00,-22.50,CLOSED,0
667549.523,0,0,0,0.670,1.000,1.000,-90.00,180.00,-22.50,CLOSED,0
667549.526,0,0,0,0.776,1.000,1.000,-90.00,180.00,-22.50,CLOSED,0
667549.529,0,0,0,0.937,1.000,1.000,-90.00,180.00,-22.50,CLOSED,0
667549.533,0,0,0,0.997,1.000,1.000,-90.00,180.00,-22.50,CLOSED,0
667549.536,0,0,0,1.000,1.000,1.000,-90.00,180.00,-22.50,CLOSED,0
667549.541,0,0,0,1.000,1.000,1.000,-90.00,180.00,-22.50,CLOSED,0
667549.545,0,0,0,1.000,1.000,1.000,-90.00,180.00,-22.50,CLOSED,0
667549.549,3,0,0,1.000,1.000,1.000,-90.00,180.00,-22.50,OPEN,0
667549.553,3,0,0,1.000,1.000,1.000,-90.00,180.00,-22.50,OPEN,0
667549.557,3,0,0,1.000,1.000,1.000,-90.00,180.00,-22.50,OPEN,0
667549.560,3,0,0,1.000,1.000,1.000,-90.00,180.00,-22.50,OPEN,0
667549.564,3,0,0,1.000,1.000,1.000,-90.00,180.00,-22.50,OPEN,0
667549.567,3,0,0,1.000,1.000,1.000,-90.00,180.00,-22.50,OPEN,0
667549.571,3,0,0,1.000,1.000,1.000,-90.00,180.00,-22.50,OPEN,0
667549.574,3,0,0,1.000,1.000,1.000,-90.00,180.00,-22.50,OPEN,0
667549.578,3,0,0,1.000,1.000,1.000,-90.00,180.00,-22.50,OPEN,0
667549.581,3,0,0,1.000,1.000,1.000,-90.00,180.00,-22.50,OPEN,0
667549.585,3,0,0,1.000,1.000,1.000,-90.00,180.00,-22.50,OPEN,0
667549.588,3,0,0,1.000,1.000,1.000,-90.00,180.00,-22.50,OPEN,0
667549.592,3,0,0,1.000,1.000,1.000,-90.00,180.00,-22.50,OPEN,0
667549.595,3,0,0,1.000,1.000,1.000,-90.00,180.00,-22.50,OPEN,0
667549.600,3,0,0,1.000,1.000,1.000,-90.00,180.00,-22.50,OPEN,0
667549.605,3,0,0,1.000,1.000,1.000,-90.00,180.00,-22.50,OPEN,0
667549.611,3,0,0,1.000,1.000,1.000,-90.00,180.00,-22.50,OPEN,0
667549.616,3,0,0,1.000,1.000,1.000,-90.00,180.00,-22.50,OPEN,0
667549.620,3,0,0,1.000,1.000,1.000,-90.00,180.00,-22.50,OPEN,0
667549.625,3,0,0,1.000,1.000,1.000,-90.00,180.00,-22.50,OPEN,0
667549.630,3,0,0,1.000,1.000,1.000,-90.00,180.00,-22.50,OPEN,0
667549.634,3,0,0,1.000,1.000,1.000,-90.00,180.00,-22.50,OPEN,0
667549.638,3,0,0,1.000,1.000,1.000,-90.00,180.00,-22.50,OPEN,0
667549.642,3,0,0,1.000,1.000,1.000,-90.00,180.00,-22.50,OPEN,0
667549.645,3,0,0,1.000,1.000,1.000,-90.00,180.00,-22.50,OPEN,0
667549.649,3,0,0,1.000,1.000,1.000,-90.00,180.00,-22.50,OPEN,0
667549.653,3,0,0,1.000,1.000,1.000,-90.00,180.00,-22.50,OPEN,0
667549.657,3,0,0,1.000,1.000,1.000,-90.00,180.00,-22.50,OPEN,0
667549.660,3,0,0,1.000,1.000,1.000,-90.00,180.00,-22.50,OPEN,0
667549.664,3,0,0,1.000,1.000,1.000,-90.00,180.00,-22.50,OPEN,0
667549.668,3,0,0,1.000,1.000,1.000,-90.00,180.00,-22.50,OPEN,0
667549.672,3,0,0,1.000,1.000,1.000,-90.00,180.00,-22.50,OPEN,0
667549.675,3,0,0,1.000,1.000,1.000,-90.00,180.00,-22.50,OPEN,0
667549.680,3,0,0,1.000,1.000,1.000,-90.00,180.00,-22.50,OPEN,0
667549.683,3,0,0,1.000,1.000,1.000,-90.00,180.00,-22.50,OPEN,0
667549.688,3,0,0,1.000,1.000,1.000,-90.00,180.00,-22.50,OPEN,0
667549.692,3,0,0,1.000,1.000,1.000,-90.00,180.00,-22.50,OPEN,0
667549.696,3,0,0,1.000,1.000,1.000,-90.00,180.00,-22.50,OPEN,0
667549.700,3,0,0,1.000,1.000,1.000,-90.00,180.00,-22.50,OPEN,0
667549.705,3,0,0,1.000,1.000,1.000,-90.00,180.00,-22.50,OPEN,0
667549.710,3,0,0,1.000,1.000,1.000,-90.00,180.00,-22.50,OPEN,0
667549.715,3,0,0,1.000,1.000,1.000,-90.00,180.00,-22.50,OPEN,0
667549.719,3,0,0,1.000,1.000,1.000,-90.00,180.00,-22.50,OPEN,0
667549.723,3,0,0,1.000,1.000,1.000,-90.00,180.00,-22.50,OPEN,0
667549.726,3,0,0,1.000,1.000,1.000,-90.00,180.00,-22.50,OPEN,0
667549.730,3,0,0,1.000,1.000,1.000,-90.00,180.00,-22.50,OPEN,0
667549.733,3,0,0,1.000,1.000,1.000,-90.00,180.00,-22.50,OPEN,0
667549.737,3,0,0,1.000,1.000,1.000,-90.00,180.00,-22.50,OPEN,0
667549.740,3,0,0,1.000,1.000,1.000,-90.00,180.00,-22.50,OPEN,0
667549.744,3,0,0,1.000,1.000,1.000,-90.00,180.00,-22.50,OPEN,0
667549.747,3,0,0,1.000,1.000,1.000,-90.00,180.00,-22.50,OPEN,0
667549.751,3,0,0,1.000,1.000,1.000,-90.00,180.00,-22.50,OPEN,0
667549.755,3,0,0,1.000,1.000,1.000,-90.00,180.00,-22.50,OPEN,0
667549.759,3,0,0,1.000,1.000,1.000,-90.00,180.00,-22.50,OPEN,0
667549.762,3,0,0,1.000,1.000,1.000,-90.00,180.00,-22.50,OPEN,0
667549.766,3,0,0,1.000,1.000,1.000,-90.00,180.00,-22.50,OPEN,0
667549.770,3,0,0,1.000,1.000,1.000,-90.00,180.00,-22.50,OPEN,0
667549.775,3,0,0,1.000,1.000,1.000,-90.00,180.00,-22.50,OPEN,0
667549.780,3,0,0,1.000,1.000,1.000,-90.00,180.00,-22.50,OPEN,0
667549.784,3,0,0,1.000,1.000,1.000,-90.00,180.00,-22.50,OPEN,0
667549.788,3,0,0,1.000,1.000,1.000,-90.00,180.00,-22.50,OPEN,0
667549.792,3,0,0,1.000,1.000,1.000,-90.00,180.00,-22.50,OPEN,0
667549.795,3,0,0,1.000,1.000,1.000,-90.00,180.00,-22.50,OPEN,0
667549.799,3,0,0,1.000,1.000,1.000,-90.00,180.00,-22.50,OPEN,0
667549.802,3,0,0,1.000,1.000,1.000,-90.00,180.00,-22.50,OPEN,0
667549.807,3,0,0,1.000,1.000,1.000,-90.00,180.00,-22.50,OPEN,0
667549.810,3,0,0,1.000,1.000,1.000,-90.00,180.00,-22.50,OPEN,0
667549.814,3,0,0,1.000,1.000,1.000,-90.00,180.00,-22.50,OPEN,0
667549.819,3,0,0,1.000,1.000,1.000,-90.00,180.00,-22.50,OPEN,0
667549.823,3,0,0,1.000,1.000,1.000,-90.00,180.00,-22.50,OPEN,0
667549.827,3,0,0,1.000,1.000,1.000,-90.00,180.00,-22.50,OPEN,0
667549.832,3,0,0,1.000,1.000,1.000,-90.00,180.00,-22.50,OPEN,0
667549.836,3,0,0,1.000,1.000,1.000,-90.00,180.00,-22.50,OPEN,0
667549.840,3,0,0,1.000,1.000,1.000,-90.00,180.00,-22.50,OPEN,0
667549.844,3,0,0,1.000,1.000,1.000,-90.00,180.00,-22.50,OPEN,0
667549.847,3,0,0,1.000,1.000,1.000,-90.00,180.00,-22.50,OPEN,0
667549.851,3,0,0,1.000,1.000,1.000,-90.00,180.00,-22.50,OPEN,0
667549.854,3,0,0,1.000,1.000,1.000,-90.00,180.00,-22.50,OPEN,0
667549.857,3,0,0,1.000,1.000,1.000,-90.00,180.00,-22.50,OPEN,0
667549.861,3,0,0,1.000,1.000,1.000,-90.00,180.00,-22.50,OPEN,0
667549.864,3,0,0,1.000,1.000,1.000,-90.00,180.00,-22.50,OPEN,0
667549.868,3,0,0,1.000,1.000,1.000,-90.00,180.00,-22.50,OPEN,0
667549.871,3,0,0,1.000,1.000,1.000,-90.00,180.00,-22.50,OPEN,0
667549.875,3,0,0,1.000,1.000,1.000,-90.00,180.00,-22.50,OPEN,0
667549.878,3,0,0,1.000,1.000,1.000,-90.00,180.00,-22.50,OPEN,0
667549.882,3,0,0,1.000,1.000,1.000,-90.00,180.00,-22.50,OPEN,0
667549.886,3,0,0,1.000,1.000,1.000,-90.00,180.00,-22.50,OPEN,0
667549.890,3,0,0,1.000,1.000,1.000,-90.00,180.00,-22.50,OPEN,0
667549.894,3,0,0,1.000,1.000,1.000,-90.00,180.00,-22.50,OPEN,0
667549.898,3,0,0,1.000,1.000,1.000,-90.00,180.00,-22.50,OPEN,0
667549.902,3,0,0,1.000,1.000,1.000,-90.00,180.00,-22.50,OPEN,0
667549.905,3,0,0,1.000,1.000,1.000,-90.00,180.00,-22.50,OPEN,0
667549.908,3,0,0,1.000,1.000,1.000,-90.00,180.00,-22.50,OPEN,0
667549.912,3,0,0,1.000,1.000,1.000,-90.00,180.00,-22.50,OPEN,0
667549.916,3,0,0,1.000,1.000,1.000,-90.00,180.00,-22.50,OPEN,0
667549.920,3,0,0,1.000,1.000,1.000,-90.00,180.00,-22.50,OPEN,0
667549.924,3,0,0,1.000,1.000,1.000,-90.00,180.00,-22.50,OPEN,0
667549.928,3,0,0,1.000,1.000,1.000,-90.00,180.00,-22.50,OPEN,0
667549.932,3,0,0,1.000,1.000,1.000,-90.00,180.00,-22.50,OPEN,0
667549.935,3,0,0,1.000,1.000,1.000,-90.00,180.00,-22.50,OPEN,0
667549.939,3,0,0,1.000,1.000,1.000,-90.00,180.00,-22.50,OPEN,0
667549.943,3,0,0,1.000,1.000,1.000,-90.00,180.00,-22.50,OPEN,0
667549.946,3,0,0,1.000,1.000,1.000,-90.00,180.00,-22.50,OPEN,0
667549.950,3,0,0,1.000,1.000,1.000,-90.00,180.00,-22.50,OPEN,0
667549.954,3,0,0,1.000,1.000,1.000,-90.00,180.00,-22.50,OPEN,0
667549.957,3,0,0,1.000,1.000,1.000,-90.00,180.00,-22.50,OPEN,0
667549.961,3,0,0,1.000,1.000,1.000,-90.00,180.00,-22.50,OPEN,0
667549.965,3,0,0,0.999,1.000,1.000,-90.00,180.00,-22.50,OPEN,0
667549.968,3,0,0,0.975,1.000,1.000,-90.00,180.00,-22.50,OPEN,0
667549.972,3,0,0,0.869,1.000,1.000,-90.00,180.00,-22.50,OPEN,0
667549.976,3,0,0,0.666,1.000,1.000,-90.00,180.00,-22.50,OPEN,0
667549.979,3,0,0,0.511,1.000,1.000,-90.00,180.00,-22.50,OPEN,0
667549.983,3,0,0,0.589,1.000,1.000,-90.00,180.00,-22.50,OPEN,0
667549.986,3,0,0,0.639,1.000,1.000,-90.00,180.00,-22.50,OPEN,0
667549.990,3,0,0,0.562,1.000,1.000,-90.00,180.00,-22.50,OPEN,0
667549.993,3,0,0,0.920,1.000,1.000,-90.00,180.00,-22.50,OPEN,0
667549.997,3,0,0,1.000,1.000,1.000,-90.00,180.00,-22.50,OPEN,0
667550.001,3,0,0,1.000,1.000,1.000,-90.00,180.00,-22.50,OPEN,0
667550.004,3,0,0,1.000,1.000,1.000,-90.00,180.00,-22.50,OPEN,0
667550.008,3,0,0,1.000,1.000,1.000,-90.00,180.00,-22.50,OPEN,0
667550.011,3,0,0,1.000,1.000,1.000,-90.00,180.00,-22.50,OPEN,0
667550.015,3,0,0,1.000,1.000,1.000,-90.00,180.00,-22.50,OPEN,0
667550.018,0,0,0,1.000,1.000,1.000,-90.00,180.00,-22.50,OPEN,0
667550.022,0,0,0,1.000,1.000,1.000,-90.00,180.00,-22.50,OPEN,0
667550.026,0,0,0,1.000,1.000,1.000,-90.00,180.00,-22.50,OPEN,0
667550.031,0,0,0,1.000,1.000,1.000,-90.00,180.00,-22.50,OPEN,0
667550.035,0,0,0,1.000,1.000,1.000,-90.00,180.00,-22.50,OPEN,0
667550.038,0,0,0,1.000,1.000,1.000,-90.00,180.00,-22.50,OPEN,0
667550.042,0,0,0,1.000,1.000,1.000,-90.00,180.00,-22.50,OPEN,0
667550.045,0,0,0,1.000,1.000,1.000,-90.00,180.00,-22.50,OPEN,0
667550.049,0,0,0,1.000,1.000,1.000,-90.00,180.00,-22.50,OPEN,0
667550.053,0,0,0,1.000,1.000,1.000,-90.00,180.00,-22.50,OPEN,0
667550.057,0,0,0,1.000,1.000,1.000,-90.00,180.00,-22.50,OPEN,0
667550.060,0,0,0,1.000,1.000,1.000,-90.00,180.00,-22.50,OPEN,0
667550.063,0,0,0,1.000,1.000,1.000,-90.00,180.00,-22.50,OPEN,0
667550.068,0,0,0,1.000,1.000,1.000,-90.00,180.00,-22.50,OPEN,0
667550.073,0,0,0,1.000,1.000,1.000,-90.00,180.00,-22.50,OPEN,0
667550.078,0,0,0,1.000,1.000,1.000,-90.00,180.00,-22.50,OPEN,0
667550.083,0,0,0,1.000,1.000,1.000,-90.00,180.00,-22.50,OPEN,0
667550.088,0,0,0,1.000,1.000,1.000,-90.00,180.00,-22.50,OPEN,0
667550.092,0,0,0,1.000,1.000,1.000,-90.00,180.00,-22.50,OPEN,0
667550.097,0,0,0,1.000,1.000,1.000,-90.00,180.00,-22.50,OPEN,0
667550.101,0,0,0,0.999,1.000,1.000,-90.00,180.00,-22.50,OPEN,0
667550.104,0,0,0,1.000,1.000,1.000,-90.00,180.00,-22.50,OPEN,0
667550.108,0,0,0,1.000,1.000,1.000,-90.00,180.00,-22.50,OPEN,0
667550.111,0,0,0,1.000,1.000,1.000,-90.00,180.00,-22.50,OPEN,0
667550.114,0,0,0,1.000,1.000,1.000,-90.00,180.00,-22.50,OPEN,0
667550.118,0,0,0,1.000,1.000,1.000,-90.00,180.00,-22.50,OPEN,0
667550.122,0,0,0,1.000,1.000,1.000,-90.00,180.00,-22.50,OPEN,0
667550.125,0,0,0,1.000,1.000,1.000,-90.00,180.00,-22.50,OPEN,0
667550.129,0,0,0,1.000,1.000,1.000,-90.00,180.00,-22.50,OPEN,0
667550.134,0,0,0,1.000,1.000,1.000,-90.00,180.00,-22.50,OPEN,0
667550.138,0,0,0,1.000,1.000,1.000,-90.00,180.00,-22.50,OPEN,0
667550.143,0,0,0,1.000,1.000,1.000,-90.00,180.00,-22.50,OPEN,0
667550.148,0,0,0,1.000,1.000,1.000,-90.00,180.00,-22.50,OPEN,0
667550.152,0,0,0,1.000,1.000,1.000,-90.00,180.00,-22.50,OPEN,0
667550.155,0,0,0,1.000,1.000,1.000,-90.00,180.00,-22.50,OPEN,0
667550.159,0,0,0,1.000,1.000,1.000,-90.00,180.00,-22.50,OPEN,0
667550.163,0,0,0,1.000,1.000,1.000,-90.00,180.00,-22.50,OPEN,0
667550.167,0,0,0,1.000,1.000,1.000,-90.00,180.00,-22.50,OPEN,0
667550.171,0,0,0,1.000,1.000,1.000,-90.00,180.00,-22.50,OPEN,0
667550.175,0,0,0,1.000,1.000,1.000,-90.00,180.00,-22.50,OPEN,0
667550.178,0,0,0,1.000,1.000,1.000,-90.00,180.00,-22.50,OPEN,0
667550.182,0,0,0,1.000,1.000,1.000,-90.00,180.00,-22.50,OPEN,0
667550.185,0,0,0,1.000,1.000,1.000,-90.00,180.00,-22.50,OPEN,0
667550.188,0,0,0,1.000,1.000,1.000,-90.00,180.00,-22.50,OPEN,0
667550.192,0,0,0,1.000,1.000,1.000,-90.00,180.00,-22.50,OPEN,0
667550.195,0,0,0,1.000,1.000,1.000,-90.00,180.00,-22.50,OPEN,0
667550.199,0,0,0,1.000,1.000,1.000,-90.00,180.00,-22.50,OPEN,0
667550.202,0,0,0,1.000,1.000,1.000,-90.00,180.00,-22.50,OPEN,0
667550.206,0,0,0,1.000,1.000,1.000,-90.00,180.00,-22.50,OPEN,0
667550.209,0,0,0,1.000,1.000,1.000,-90.00,180.00,-22.50,OPEN,0
667550.213,0,0,0,1.000,1.000,1.000,-90.00,180.00,-22.50,OPEN,0
667550.216,0,0,0,1.000,1.000,1.000,-90.00,180.00,-22.50,OPEN,0
667550.219,0,0,0,1.000,1.000,1.000,-90.00,180.00,-22.50,OPEN,0
667550.223,0,0,0,1.000,1.000,1.000,-90.00,180.00,-22.50,OPEN,0
667550.226,0,0,0,1.000,1.000,1.000,-90.00,180.00,-22.50,OPEN,0
667550.229,0,0,0,1.000,1.000,1.000,-90.00,180.00,-22.50,OPEN,0
667550.233,0,0,0,1.000,1.000,1.000,-90.00,180.00,-22.50,OPEN,0
667550.236,0,0,0,1.000,1.000,1.000,-90.00,180.00,-22.50,OPEN,0
667550.239,0,0,0,1.000,1.000,1.000,-90.00,180.00,-22.50,OPEN,0
667550.243,0,0,0,1.000,1.000,1.000,-90.00,180.00,-22.50,OPEN,0
667550.247,0,0,0,1.000,1.000,1.000,-90.00,180.00,-22.50,OPEN,0
667550.252,0,0,0,1.000,1.000,1.000,-90.00,180.00,-22.50,OPEN,0
667550.256,0,0,0,1.000,1.000,1.000,-90.00,180.00,-22.50,OPEN,0
667550.259,0,0,0,1.000,1.000,1.000,-90.00,180.00,-22.50,OPEN,0
667550.263,0,0,0,1.000,1.000,1.000,-90.00,180.00,-22.50,OPEN,0
667550.266,0,0,0,1.000,1.000,1.000,-90.00,180.00,-22.50,OPEN,0
667550.270,0,0,0,1.000,1.000,1.000,-90.00,180.00,-22.50,OPEN,0
667550.273,0,0,0,1.000,1.000,1.000,-90.00,180.00,-22.50,OPEN,0
667550.276,0,0,0,1.000,1.000,1.000,-90.00,180.00,-22.50,OPEN,0
667550.280,0,0,0,1.000,1.000,1.000,-90.00,180.00,-22.50,OPEN,0
667550.283,0,0,0,1.000,1.000,1.000,-90.00,180.00,-22.50,OPEN,0
667550.286,0,0,0,1.000,1.000,1.000,-90.00,180.00,-22.50,OPEN,0
667550.290,0,0,0,1.000,1.000,1.000,-90.00,180.00,-22.50,OPEN,0
667550.293,0,0,0,1.000,1.000,1.000,-90.00,180.00,-22.50,OPEN,0
667550.297,0,0,0,1.000,1.000,1.000,-90.00,180.00,-22.50,OPEN,0
667550.301,0,0,0,1.000,1.000,1.000,-90.00,180.00,-22.50,OPEN,0
667550.304,0,0,0,1.000,1.000,1.000,-90.00,180.00,-22.50,OPEN,0
667550.308,0,0,0,1.000,1.000,1.000,-90.00,180.00,-22.50,OPEN,0
667550.312,0,0,0,1.000,1.000,1.000,-90.00,180.00,-22.50,OPEN,0
667550.316,0,0,0,1.000,1.000,1.000,-90.00,180.00,-22.50,OPEN,0
667550.320,0,0,0,1.000,1.000,1.000,-90.00,180.00,-22.50,OPEN,0
667550.325,0,0,0,1.000,1.000,1.000,-90.00,180.00,-22.50,OPEN,0
667550.329,0,0,0,1.000,1.000,1.000,-90.00,180.00,-22.50,OPEN,0
667550.333,0,0,0,1.000,1.000,1.000,-90.00,180.00,-22.50,OPEN,0
667550.337,0,0,0,1.000,1.000,1.000,-90.00,180.00,-22.50,OPEN,0
667550.340,0,0,0,1.000,1.000,1.000,-90.00,180.00,-22.50,OPEN,0
667550.343,0,0,0,1.000,1.000,1.000,-90.00,180.00,-22.50,OPEN,0
667550.347,0,0,0,1.000,1.000,1.000,-90.00,180.00,-22.50,OPEN,0
667550.351,0,0,0,1.000,1.000,1.000,-90.00,180.00,-22.50,OPEN,0
667550.354,0,0,0,1.000,1.000,1.000,-90.00,180.00,-22.50,OPEN,0
667550.357,0,0,0,1.000,1.000,1.000,-90.00,180.00,-22.50,OPEN,0
667550.361,0,0,0,1.000,1.000,1.000,-90.00,180.00,-22.50,OPEN,0
667550.364,0,0,0,1.000,1.000,1.000,-90.00,180.00,-22.50,OPEN,0
667550.368,0,0,0,1.000,1.000,1.000,-90.00,180.00,-22.50,OPEN,0
667550.371,0,0,0,1.000,1.000,1.000,-90.00,180.00,-22.50,OPEN,0
667550.375,0,0,0,1.000,1.000,1.000,-90.00,180.00,-22.50,OPEN,0
667550.379,0,0,0,1.000,1.000,1.000,-90.00,180.00,-22.50,OPEN,0
667550.383,0,0,0,1.000,1.000,1.000,-90.00,180.00,-22.50,OPEN,0
667550.387,0,0,0,1.000,1.000,1.000,-90.00,180.00,-22.50,OPEN,0
