t,hand,elbow,shoulder,p_hand,p_elbow,p_shoulder,J2,J3,J6,grip_state,cmd_sent
669665.481,0,0,0,0.981,1.000,0.999,-90.00,180.00,0.00,OPEN,0
669665.503,0,0,0,0.997,1.000,0.999,-90.00,180.00,0.00,OPEN,0
669665.509,0,0,0,1.000,1.000,0.998,-90.00,180.00,0.00,OPEN,0
669665.517,0,0,0,1.000,1.000,0.999,-90.00,180.00,0.00,OPEN,0
669665.524,0,0,0,1.000,1.000,0.999,-90.00,180.00,0.00,OPEN,0
669665.528,0,0,0,1.000,1.000,0.999,-90.00,180.00,0.00,OPEN,0
669665.532,0,0,0,1.000,1.000,0.999,-90.00,180.00,0.00,OPEN,0
669665.536,0,0,0,1.000,1.000,0.999,-90.00,180.00,0.00,OPEN,0
669665.540,0,0,0,1.000,1.000,0.999,-90.00,180.00,0.00,OPEN,0
669665.550,0,0,0,1.000,1.000,0.999,-90.00,180.00,0.00,OPEN,0
669665.554,0,0,0,1.000,1.000,0.999,-90.00,180.00,0.00,OPEN,0
669665.557,0,0,0,1.000,1.000,0.998,-90.00,180.00,0.00,OPEN,0
669665.561,0,0,0,1.000,1.000,0.998,-90.00,180.00,0.00,OPEN,0
669665.566,0,0,0,1.000,1.000,0.998,-90.00,180.00,0.00,OPEN,0
669665.574,0,0,0,1.000,1.000,0.996,-90.00,180.00,0.00,OPEN,0
669665.582,0,0,0,1.000,1.000,0.995,-90.00,180.00,0.00,OPEN,0
669665.587,0,0,0,1.000,1.000,0.997,-90.00,180.00,0.00,OPEN,0
669665.591,0,0,0,1.000,1.000,0.996,-90.00,180.00,0.00,OPEN,0
669665.595,0,0,0,1.000,1.000,0.997,-90.00,180.00,0.00,OPEN,0
669665.599,0,0,0,1.000,1.000,0.997,-90.00,180.00,0.00,OPEN,0
669665.605,0,0,0,1.000,1.000,0.992,-90.00,180.00,0.00,OPEN,0
669665.609,0,0,0,1.000,1.000,0.988,-90.00,180.00,0.00,OPEN,0
669665.613,0,0,0,1.000,1.000,0.972,-90.00,180.00,0.00,OPEN,0
669665.617,0,0,0,1.000,1.000,0.994,-90.00,180.00,0.00,OPEN,0
669665.620,0,0,0,1.000,1.000,0.996,-90.00,180.00,0.00,OPEN,0
669665.624,0,0,0,1.000,1.000,0.993,-90.00,180.00,0.00,OPEN,0
669665.627,0,0,0,1.000,1.000,0.994,-90.00,180.00,0.00,OPEN,0
669665.631,0,0,0,1.000,1.000,0.993,-90.00,180.00,0.00,OPEN,0
669665.635,0,0,0,1.000,1.000,0.994,-90.00,180.00,0.00,OPEN,0
669665.644,0,0,0,1.000,1.000,0.985,-90.00,180.00,0.00,OPEN,0
669665.648,0,0,0,1.000,1.000,0.889,-90.00,180.00,0.00,OPEN,0
669665.653,0,0,0,1.000,1.000,0.814,-90.00,180.00,0.00,OPEN,0
669665.657,0,0,0,1.000,1.000,0.943,-90.00,180.00,0.00,OPEN,0
669665.660,0,0,0,1.000,1.000,0.984,-90.00,180.00,0.00,OPEN,0
669665.665,0,0,0,1.000,1.000,0.991,-90.00,180.00,0.00,OPEN,0
669665.669,0,0,0,1.000,1.000,0.992,-90.00,180.00,0.00,OPEN,0
669665.673,0,0,0,1.000,1.000,0.995,-90.00,180.00,0.00,OPEN,0
669665.676,0,0,0,1.000,1.000,0.996,-90.00,180.00,0.00,OPEN,0
669665.680,0,0,0,1.000,1.000,0.998,-90.00,180.00,0.00,OPEN,0
669665.687,0,0,0,1.000,1.000,0.998,-90.00,180.00,0.00,OPEN,0
669665.691,0,0,0,1.000,1.000,0.997,-90.00,180.00,0.00,OPEN,0
669665.701,0,0,0,1.000,1.000,0.994,-90.00,180.00,0.00,OPEN,0
669665.709,0,0,0,1.000,1.000,0.994,-90.00,180.00,0.00,OPEN,0
669665.715,0,0,0,1.000,1.000,0.993,-90.00,180.00,0.00,OPEN,0
669665.723,0,0,0,1.000,1.000,0.989,-90.00,180.00,0.00,OPEN,0
669665.726,0,0,0,1.000,1.000,0.981,-90.00,180.00,0.00,OPEN,0
669665.730,0,0,0,1.000,1.000,0.978,-90.00,180.00,0.00,OPEN,0
669665.734,0,0,0,1.000,1.000,0.983,-90.00,180.00,0.00,OPEN,0
669665.738,0,0,0,1.000,1.000,0.993,-90.00,180.00,0.00,OPEN,0
669665.745,0,0,0,1.000,1.000,0.992,-90.00,180.00,0.00,OPEN,0
669665.749,0,0,0,1.000,1.000,0.992,-90.00,180.00,0.00,OPEN,0
669665.753,0,0,0,1.000,1.000,0.989,-90.00,180.00,0.00,OPEN,0
669665.761,0,0,0,1.000,1.000,0.988,-90.00,180.00,0.00,OPEN,0
669665.765,0,0,0,1.000,1.000,0.957,-90.00,180.00,0.00,OPEN,0
669665.773,0,0,0,1.000,1.000,0.920,-90.00,180.00,0.00,OPEN,0
669665.777,0,0,0,1.000,1.000,0.942,-90.00,180.00,0.00,OPEN,0
669665.784,0,0,0,1.000,1.000,0.936,-90.00,180.00,0.00,OPEN,0
669665.789,0,0,0,1.000,1.000,0.935,-90.00,180.00,0.00,OPEN,0
669665.794,0,0,0,1.000,1.000,0.911,-90.00,180.00,0.00,OPEN,0
669665.798,0,0,0,1.000,1.000,0.908,-90.00,180.00,0.00,OPEN,0
669665.803,0,0,0,1.000,1.000,0.968,-90.00,180.00,0.00,OPEN,0
669665.808,0,0,0,1.000,1.000,0.969,-90.00,180.00,0.00,OPEN,0
669665.811,0,0,0,1.000,1.000,0.981,-90.00,180.00,0.00,OPEN,0
669665.816,0,0,0,1.000,1.000,0.995,-90.00,180.00,0.00,OPEN,0
669665.821,0,0,0,1.000,1.000,0.996,-90.00,180.00,0.00,OPEN,0
669665.826,0,0,0,1.000,1.000,0.996,-90.00,180.00,0.00,OPEN,0
669665.829,0,0,0,1.000,1.000,0.994,-90.00,180.00,0.00,OPEN,0
669665.834,0,0,0,1.000,1.000,0.990,-90.00,180.00,0.00,OPEN,0
669665.838,0,0,0,1.000,1.000,0.986,-90.00,180.00,0.00,OPEN,0
669665.841,0,0,0,1.000,1.000,0.987,-90.00,180.00,0.00,OPEN,0
669665.845,0,0,0,1.000,1.000,0.982,-90.00,180.00,0.00,OPEN,0
669665.849,0,0,0,1.000,1.000,0.978,-90.00,180.00,0.00,OPEN,0
669665.853,0,0,0,1.000,1.000,0.983,-90.00,180.00,0.00,OPEN,0
669665.858,0,0,0,1.000,1.000,0.988,-90.00,180.00,0.00,OPEN,0
669665.862,0,0,0,1.000,1.000,0.994,-90.00,180.00,0.00,OPEN,0
669665.866,0,0,0,1.000,1.000,0.994,-90.00,180.00,0.00,OPEN,0
669665.870,0,0,0,1.000,1.000,0.990,-90.00,180.00,0.00,OPEN,0
669665.879,0,0,0,1.000,1.000,0.991,-90.00,180.00,0.00,OPEN,0
669665.882,0,0,0,1.000,1.000,0.989,-90.00,180.00,0.00,OPEN,0
669665.886,0,0,0,1.000,1.000,0.986,-90.00,180.00,0.00,OPEN,0
669665.890,0,0,0,1.000,1.000,0.985,-90.00,180.00,0.00,OPEN,0
669665.897,0,0,0,1.000,1.000,0.981,-90.00,180.00,0.00,OPEN,0
669665.902,0,0,0,1.000,1.000,0.979,-90.00,180.00,0.00,OPEN,0
669665.906,0,0,0,1.000,1.000,0.988,-90.00,180.00,0.00,OPEN,0
669665.910,0,0,0,1.000,1.000,0.987,-90.00,180.00,0.00,OPEN,0
669665.915,0,0,0,1.000,1.000,0.987,-90.00,180.00,0.00,OPEN,0
669665.918,0,0,0,1.000,1.000,0.987,-90.00,180.00,0.00,OPEN,0
669665.926,0,0,0,1.000,1.000,0.990,-90.00,180.00,0.00,OPEN,0
669665.930,0,0,0,1.000,1.000,0.994,-90.00,180.00,0.00,OPEN,0
669665.934,0,0,0,1.000,1.000,0.989,-90.00,180.00,0.00,OPEN,0
669665.938,0,0,0,1.000,1.000,0.987,-90.00,180.00,0.00,OPEN,0
669665.946,0,0,0,1.000,1.000,0.987,-90.00,180.00,0.00,OPEN,0
669665.951,0,0,0,1.000,1.000,0.990,-90.00,180.00,0.00,OPEN,0
669665.955,0,0,0,1.000,1.000,0.981,-90.00,180.00,0.00,OPEN,0
669665.962,0,0,0,1.000,1.000,0.979,-90.00,180.00,0.00,OPEN,0
669665.966,0,0,0,1.000,1.000,0.985,-90.00,180.00,0.00,OPEN,0
669665.970,0,0,0,1.000,1.000,1.000,-90.00,180.00,0.00,OPEN,0
669665.974,0,0,0,1.000,1.000,1.000,-90.00,180.00,0.00,OPEN,0
669665.978,0,0,0,1.000,1.000,1.000,-90.00,180.00,0.00,OPEN,0
669665.985,0,0,0,1.000,1.000,1.000,-90.00,180.00,0.00,OPEN,0
669665.989,0,0,0,1.000,1.000,1.000,-90.00,180.00,0.00,OPEN,0
669665.993,0,0,0,1.000,1.000,1.000,-90.00,180.00,0.00,OPEN,0
669665.997,0,0,0,1.000,1.000,1.000,-90.00,180.00,0.00,OPEN,0
669666.002,0,0,0,1.000,1.000,1.000,-90.00,180.00,0.00,OPEN,0
669666.006,0,0,0,1.000,1.000,1.000,-90.00,180.00,0.00,OPEN,0
669666.011,0,0,0,1.000,1.000,1.000,-90.00,180.00,0.00,OPEN,0
669666.015,0,0,0,1.000,1.000,1.000,-90.00,180.00,0.00,OPEN,0
669666.019,0,0,0,1.000,1.000,1.000,-90.00,180.00,0.00,OPEN,0
669666.024,0,0,0,1.000,1.000,1.000,-90.00,180.00,0.00,OPEN,0
669666.031,0,0,0,1.000,1.000,1.000,-90.00,180.00,0.00,OPEN,0
669666.041,0,0,0,1.000,1.000,1.000,-90.00,180.00,0.00,OPEN,0
669666.049,0,0,0,1.000,1.000,1.000,-90.00,180.00,0.00,OPEN,0
669666.058,0,0,0,1.000,1.000,1.000,-90.00,180.00,0.00,OPEN,0
669666.066,0,0,0,1.000,1.000,1.000,-90.00,180.00,0.00,OPEN,0
669666.074,0,0,0,1.000,1.000,0.924,-90.00,180.00,0.00,OPEN,0
669666.083,1,0,0,1.000,1.000,0.700,-90.00,180.00,4.50,OPEN,1
669666.093,1,0,0,1.000,1.000,0.790,-90.00,180.00,4.50,OPEN,0
669666.101,1,0,0,1.000,1.000,1.000,-90.00,180.00,4.50,OPEN,0
669666.109,1,0,0,1.000,1.000,1.000,-90.00,180.00,4.50,OPEN,0
669666.115,1,0,0,1.000,1.000,1.000,-90.00,180.00,4.50,OPEN,0
669666.119,1,0,0,0.773,1.000,1.000,-90.00,180.00,4.50,OPEN,0
669666.122,1,0,0,1.000,1.000,1.000,-90.00,180.00,4.50,OPEN,0
669666.126,1,0,0,1.000,1.000,1.000,-90.00,180.00,4.50,OPEN,0
669666.129,1,0,0,1.000,1.000,1.000,-90.00,180.00,4.50,OPEN,0
669666.133,1,0,0,1.000,1.000,1.000,-90.00,180.00,4.50,OPEN,0
669666.139,1,0,0,1.000,1.000,1.000,-90.00,180.00,4.50,OPEN,0
669666.143,1,0,0,1.000,1.000,1.000,-90.00,180.00,4.50,OPEN,0
669666.147,1,0,0,1.000,0.522,0.982,-90.00,180.00,4.50,OPEN,0
669666.151,0,0,0,1.000,0.998,0.732,-90.00,180.00,4.50,OPEN,0
669666.155,0,0,0,1.000,1.000,0.598,-90.00,180.00,4.50,OPEN,0
669666.159,0,0,0,1.000,1.000,0.546,-90.00,180.00,4.50,OPEN,0
669666.165,0,0,0,1.000,1.000,0.600,-90.00,180.00,4.50,OPEN,0
669666.176,0,0,0,1.000,1.000,0.996,-90.00,180.00,4.50,OPEN,0
669666.181,0,0,0,1.000,1.000,0.976,-90.00,180.00,4.50,OPEN,0
669666.186,0,0,0,1.000,1.000,0.959,-90.00,180.00,4.50,OPEN,0
669666.191,0,0,0,1.000,1.000,0.984,-90.00,180.00,4.50,OPEN,0
669666.196,0,0,0,1.000,0.992,0.988,-90.00,180.00,4.50,OPEN,0
669666.200,0,0,0,1.000,0.973,0.978,-90.00,180.00,4.50,OPEN,0
669666.205,0,0,0,1.000,0.743,0.999,-90.00,180.00,4.50,OPEN,0
669666.214,0,0,0,1.000,1.000,1.000,-90.00,180.00,4.50,OPEN,0
669666.220,0,0,0,1.000,1.000,0.995,-90.00,180.00,4.50,OPEN,0
669666.224,0,0,0,1.000,0.810,0.803,-90.00,180.00,4.50,OPEN,0
669666.228,0,0,0,1.000,0.977,0.574,-90.00,180.00,4.50,OPEN,0
669666.235,0,0,0,1.000,0.949,0.637,-90.00,180.00,4.50,OPEN,0
669666.239,0,0,0,1.000,0.778,0.794,-90.00,180.00,4.50,OPEN,0
669666.247,0,0,0,1.000,0.995,0.992,-90.00,180.00,4.50,OPEN,0
669666.251,0,0,0,1.000,1.000,1.000,-90.00,180.00,4.50,OPEN,0
669666.255,0,0,0,1.000,1.000,1.000,-90.00,180.00,4.50,OPEN,0
669666.259,0,0,0,1.000,1.000,1.000,-90.00,180.00,4.50,OPEN,0
669666.263,0,0,0,1.000,1.000,1.000,-90.00,180.00,4.50,OPEN,0
669666.270,0,0,0,1.000,1.000,1.000,-90.00,180.00,4.50,OPEN,0
669666.274,0,0,0,1.000,1.000,1.000,-90.00,180.00,4.50,OPEN,0
669666.282,0,0,0,1.000,1.000,1.000,-90.00,180.00,4.50,OPEN,0
669666.286,0,0,0,1.000,1.000,0.956,-90.00,180.00,4.50,OPEN,0
669666.290,0,0,0,1.000,1.000,0.562,-90.00,180.00,4.50,OPEN,0
669666.295,0,0,0,1.000,1.000,1.000,-90.00,180.00,4.50,OPEN,0
669666.300,0,0,0,1.000,1.000,1.000,-90.00,180.00,4.50,OPEN,0
669666.304,0,0,0,1.000,1.000,1.000,-90.00,180.00,4.50,OPEN,0
669666.308,0,0,0,1.000,1.000,1.000,-90.00,180.00,4.50,OPEN,0
669666.317,0,0,0,1.000,1.000,1.000,-90.00,180.00,4.50,OPEN,0
669666.322,0,0,0,1.000,1.000,1.000,-90.00,180.00,4.50,OPEN,0
669666.331,0,0,0,1.000,1.000,1.000,-90.00,180.00,4.50,OPEN,0
669666.339,0,0,0,1.000,1.000,1.000,-90.00,180.00,4.50,OPEN,0
669666.347,0,0,0,1.000,1.000,1.000,-90.00,180.00,4.50,OPEN,0
669666.353,0,0,0,1.000,1.000,1.000,-90.00,180.00,4.50,OPEN,0
669666.361,0,0,0,1.000,1.000,1.000,-90.00,180.00,4.50,OPEN,0
669666.369,0,0,0,1.000,1.000,1.000,-90.00,180.00,4.50,OPEN,0
669666.377,0,0,0,1.000,1.000,1.000,-90.00,180.00,4.50,OPEN,0
669666.385,0,0,0,1.000,1.000,1.000,-90.00,180.00,4.50,OPEN,0
669666.389,0,0,0,1.000,1.000,1.000,-90.00,180.00,4.50,OPEN,0
669666.394,0,0,0,1.000,1.000,1.000,-90.00,180.00,4.50,OPEN,0
669666.402,0,0,0,1.000,1.000,1.000,-90.00,180.00,4.50,OPEN,0
669666.411,0,0,0,1.000,0.999,1.000,-90.00,180.00,4.50,OPEN,0
669666.417,0,0,0,1.000,0.847,0.986,-90.00,180.00,4.50,OPEN,0
669666.422,0,0,0,1.000,1.000,0.759,-90.00,180.00,4.50,OPEN,0
669666.425,0,0,0,1.000,1.000,0.965,-90.00,180.00,4.50,OPEN,0
669666.429,0,0,0,1.000,1.000,0.994,-90.00,180.00,4.50,OPEN,0
669666.433,0,0,0,1.000,1.000,0.994,-90.00,180.00,4.50,OPEN,0
669666.437,0,0,0,1.000,1.000,0.993,-90.00,180.00,4.50,OPEN,0
669666.442,0,0,0,1.000,1.000,0.991,-90.00,180.00,4.50,OPEN,0
669666.452,0,0,0,1.000,1.000,0.987,-90.00,180.00,4.50,OPEN,0
669666.461,0,0,0,1.000,1.000,0.991,-90.00,180.00,4.50,OPEN,0
669666.469,0,0,0,1.000,1.000,0.995,-90.00,180.00,4.50,OPEN,0
669666.477,0,0,0,1.000,1.000,0.993,-90.00,180.00,4.50,OPEN,0
669666.484,0,0,0,1.000,1.000,0.985,-90.00,180.00,4.50,OPEN,0
669666.488,0,0,0,1.000,1.000,0.981,-90.00,180.00,4.50,OPEN,0
669666.491,0,0,0,1.000,1.000,0.991,-90.00,180.00,4.50,OPEN,0
669666.495,0,0,0,1.000,1.000,0.989,-90.00,180.00,4.50,OPEN,0
669666.499,0,0,0,1.000,1.000,0.980,-90.00,180.00,4.50,OPEN,0
669666.503,0,0,0,1.000,1.000,0.959,-90.00,180.00,4.50,OPEN,0
669666.507,0,0,0,1.000,1.000,0.587,-90.00,180.00,4.50,OPEN,0
669666.511,0,0,0,1.000,1.000,0.505,-90.00,180.00,4.50,OPEN,0
669666.516,0,0,0,1.000,1.000,0.514,-90.00,180.00,4.50,OPEN,0
669666.520,0,0,0,1.000,1.000,0.504,-90.00,180.00,4.50,OPEN,0
669666.528,0,0,0,1.000,1.000,0.527,-90.00,180.00,4.50,OPEN,0
669666.532,0,0,0,1.000,1.000,0.761,-90.00,180.00,4.50,OPEN,0
669666.537,0,0,0,1.000,1.000,0.892,-90.00,180.00,4.50,OPEN,0
669666.541,0,0,0,1.000,1.000,0.929,-90.00,180.00,4.50,OPEN,0
669666.544,0,0,0,1.000,1.000,0.940,-90.00,180.00,4.50,OPEN,0
669666.548,0,0,0,1.000,1.000,0.913,-90.00,180.00,4.50,OPEN,0
669666.556,0,0,0,1.000,1.000,0.912,-90.00,180.00,4.50,OPEN,0
669666.559,0,0,0,1.000,1.000,0.848,-90.00,180.00,4.50,OPEN,0
669666.563,0,0,0,1.000,1.000,0.874,-90.00,180.00,4.50,OPEN,0
669666.567,0,0,0,1.000,1.000,0.876,-90.00,180.00,4.50,OPEN,0
669666.571,0,0,0,1.000,1.000,0.909,-90.00,180.00,4.50,OPEN,0
669666.577,0,0,0,1.000,1.000,0.925,-90.00,180.00,4.50,OPEN,0
669666.581,0,0,0,1.000,1.000,0.970,-90.00,180.00,4.50,OPEN,0
669666.585,0,0,0,1.000,1.000,0.980,-90.00,180.00,4.50,OPEN,0
669666.588,0,0,0,1.000,1.000,0.982,-90.00,180.00,4.50,OPEN,0
669666.597,0,0,0,1.000,1.000,0.990,-90.00,180.00,4.50,OPEN,0
669666.600,0,0,0,1.000,1.000,0.993,-90.00,180.00,4.50,OPEN,0
669666.605,0,0,0,1.000,1.000,0.991,-90.00,180.00,4.50,OPEN,0
669666.614,0,0,0,1.000,1.000,0.993,-90.00,180.00,4.50,OPEN,0
669666.618,0,0,0,1.000,1.000,0.995,-90.00,180.00,4.50,OPEN,0
669666.622,0,0,0,1.000,1.000,0.995,-90.00,180.00,4.50,OPEN,0
669666.625,0,0,0,1.000,1.000,0.996,-90.00,180.00,4.50,OPEN,0
669666.629,0,0,0,1.000,1.000,0.997,-90.00,180.00,4.50,OPEN,0
669666.633,0,0,0,1.000,1.000,0.988,-90.00,180.00,4.50,OPEN,0
669666.638,0,0,0,1.000,1.000,0.949,-90.00,180.00,4.50,OPEN,0
669666.641,0,0,0,1.000,1.000,0.769,-90.00,180.00,4.50,OPEN,0
669666.645,0,0,0,1.000,1.000,0.682,-90.00,180.00,4.50,OPEN,0
669666.649,0,0,0,1.000,1.000,0.598,-90.00,180.00,4.50,OPEN,0
669666.659,0,0,0,1.000,1.000,0.619,-90.00,180.00,4.50,OPEN,0
669666.664,0,0,0,1.000,1.000,0.518,-90.00,180.00,4.50,OPEN,0
669666.671,0,0,0,1.000,1.000,0.527,-90.00,180.00,4.50,OPEN,0
669666.675,0,0,0,1.000,1.000,0.560,-90.00,180.00,4.50,OPEN,0
669666.685,0,0,0,1.000,1.000,0.534,-90.00,180.00,4.50,OPEN,0
669666.694,0,0,0,1.000,1.000,0.687,-90.00,180.00,4.50,OPEN,0
669666.698,0,0,0,1.000,1.000,0.702,-90.00,180.00,4.50,OPEN,0
669666.702,0,0,0,1.000,1.000,0.818,-90.00,180.00,4.50,OPEN,0
669666.711,0,0,0,1.000,1.000,0.739,-90.00,180.00,4.50,OPEN,0
669666.715,0,0,0,1.000,1.000,0.771,-90.00,180.00,4.50,OPEN,0
669666.719,0,0,0,1.000,1.000,0.750,-90.00,180.00,4.50,OPEN,0
669666.723,0,0,0,1.000,1.000,0.721,-90.00,180.00,4.50,OPEN,0
669666.727,0,0,0,1.000,1.000,0.617,-90.00,180.00,4.50,OPEN,0
669666.730,0,0,0,1.000,1.000,0.580,-90.00,180.00,4.50,OPEN,0
669666.734,0,0,0,1.000,1.000,0.666,-90.00,180.00,4.50,OPEN,0
669666.739,0,0,0,1.000,1.000,0.615,-90.00,180.00,4.50,OPEN,0
669666.742,0,0,0,1.000,1.000,0.527,-90.00,180.00,4.50,OPEN,0
669666.746,0,0,0,1.000,1.000,0.607,-90.00,180.00,4.50,OPEN,0
669666.753,0,0,0,1.000,1.000,0.608,-90.00,180.00,4.50,OPEN,0
669666.760,0,0,0,1.000,1.000,0.708,-90.00,180.00,4.50,OPEN,0
669666.766,0,0,0,1.000,1.000,0.855,-90.00,180.00,4.50,OPEN,0
669666.770,0,0,0,1.000,1.000,0.816,-90.00,180.00,4.50,OPEN,0
669666.774,0,0,0,1.000,1.000,0.858,-90.00,180.00,4.50,OPEN,0
669666.778,0,0,0,1.000,1.000,0.850,-90.00,180.00,4.50,OPEN,0
669666.782,0,0,0,1.000,1.000,0.653,-90.00,180.00,4.50,OPEN,0
669666.786,0,0,0,1.000,1.000,0.612,-90.00,180.00,4.50,OPEN,0
669666.790,0,0,0,1.000,1.000,0.638,-90.00,180.00,4.50,OPEN,0
669666.794,0,0,0,1.000,1.000,0.707,-90.00,180.00,4.50,OPEN,0
669666.798,0,0,0,1.000,1.000,0.766,-90.00,180.00,4.50,OPEN,0
669666.802,0,0,0,1.000,1.000,0.682,-90.00,180.00,4.50,OPEN,0
669666.807,0,0,0,1.000,1.000,0.505,-90.00,180.00,4.50,OPEN,0
669666.812,0,0,0,1.000,1.000,0.640,-90.00,180.00,4.50,OPEN,0
669666.816,0,0,0,1.000,1.000,0.733,-90.00,180.00,4.50,OPEN,0
669666.820,0,0,0,1.000,1.000,1.000,-90.00,180.00,4.50,OPEN,0
669666.827,0,0,0,1.000,1.000,1.000,-90.00,180.00,4.50,OPEN,0
669666.833,0,0,0,1.000,1.000,1.000,-90.00,180.00,4.50,OPEN,0
669666.836,0,0,0,1.000,1.000,1.000,-90.00,180.00,4.50,OPEN,0
669666.844,0,0,0,1.000,1.000,1.000,-90.00,180.00,4.50,OPEN,0
669666.848,0,0,0,1.000,1.000,1.000,-90.00,180.00,4.50,OPEN,0
669666.856,0,0,0,1.000,1.000,1.000,-90.00,180.00,4.50,OPEN,0
669666.865,0,0,0,1.000,1.000,1.000,-90.00,180.00,4.50,OPEN,0
669666.869,0,0,0,1.000,1.000,1.000,-90.00,180.00,4.50,OPEN,0
669666.873,0,0,0,1.000,1.000,1.000,-90.00,180.00,4.50,OPEN,0
669666.879,0,0,0,0.984,1.000,1.000,-90.00,180.00,4.50,OPEN,0
669666.886,0,0,0,0.985,1.000,1.000,-90.00,180.00,4.50,OPEN,0
669666.891,0,0,0,0.968,1.000,1.000,-90.00,180.00,4.50,OPEN,0
669666.895,0,0,0,0.966,1.000,1.000,-90.00,180.00,4.50,OPEN,0
669666.899,0,0,0,0.962,1.000,1.000,-90.00,180.00,4.50,OPEN,0
669666.903,0,0,0,0.957,1.000,1.000,-90.00,180.00,4.50,OPEN,0
669666.907,0,0,0,0.937,1.000,1.000,-90.00,180.00,4.50,OPEN,0
669666.911,0,0,0,0.984,1.000,1.000,-90.00,180.00,4.50,OPEN,0
669666.915,0,0,0,0.999,1.000,1.000,-90.00,180.00,4.50,OPEN,0
669666.919,0,0,0,1.000,1.000,1.000,-90.00,180.00,4.50,OPEN,0
669666.923,0,0,0,1.000,0.985,0.999,-90.00,180.00,4.50,OPEN,0
669666.927,0,0,0,1.000,1.000,1.000,-90.00,180.00,4.50,OPEN,0
669666.931,0,0,0,1.000,1.000,1.000,-90.00,180.00,4.50,OPEN,0
669666.935,0,0,0,1.000,0.997,1.000,-90.00,180.00,4.50,OPEN,0
669666.939,2,0,0,1.000,1.000,1.000,-90.00,180.00,0.00,OPEN,1
669666.943,2,0,0,1.000,1.000,1.000,-90.00,180.00,0.00,OPEN,0
669666.947,2,0,0,1.000,1.000,1.000,-90.00,180.00,0.00,OPEN,0
669666.952,2,0,0,1.000,1.000,1.000,-90.00,180.00,0.00,OPEN,0
669666.956,2,0,0,1.000,0.996,0.988,-90.00,180.00,0.00,OPEN,0
669666.960,2,0,0,1.000,0.999,0.980,-90.00,180.00,0.00,OPEN,0
669666.963,2,0,0,1.000,0.999,0.977,-90.00,180.00,0.00,OPEN,0
669666.967,2,0,0,1.000,0.998,0.962,-90.00,180.00,0.00,OPEN,0
669666.971,2,0,0,1.000,0.958,0.800,-90.00,180.00,0.00,OPEN,0
669666.974,2,0,0,1.000,1.000,0.998,-90.00,180.00,0.00,OPEN,0
669666.978,2,0,0,1.000,1.000,1.000,-90.00,180.00,0.00,OPEN,0
669666.982,2,0,0,1.000,1.000,1.000,-90.00,180.00,0.00,OPEN,0
669666.985,2,0,0,1.000,1.000,1.000,-90.00,180.00,0.00,OPEN,0
669666.990,2,0,0,1.000,1.000,1.000,-90.00,180.00,0.00,OPEN,0
669666.994,2,0,0,1.000,1.000,1.000,-90.00,180.00,0.00,OPEN,0
669666.997,2,0,0,1.000,1.000,1.000,-90.00,180.00,0.00,OPEN,0
669667.001,2,0,0,1.000,1.000,1.000,-90.00,180.00,0.00,OPEN,0
669667.005,2,0,0,1.000,1.000,1.000,-90.00,180.00,0.00,OPEN,0
669667.009,2,0,0,1.000,1.000,1.000,-90.00,180.00,0.00,OPEN,0
669667.013,2,0,0,1.000,1.000,1.000,-90.00,180.00,0.00,OPEN,0
669667.020,2,0,0,1.000,1.000,1.000,-90.00,180.00,0.00,OPEN,0
669667.024,2,0,0,1.000,1.000,1.000,-90.00,180.00,0.00,OPEN,0
669667.029,2,0,0,1.000,1.000,1.000,-90.00,180.00,0.00,OPEN,0
669667.036,2,0,0,1.000,1.000,1.000,-90.00,180.00,0.00,OPEN,0
669667.044,2,0,0,1.000,1.000,1.000,-90.00,180.00,-4.50,OPEN,1
669667.048,2,0,0,1.000,1.000,1.000,-90.00,180.00,-4.50,OPEN,0
669667.051,2,0,0,1.000,1.000,1.000,-90.00,180.00,-4.50,OPEN,0
669667.055,2,0,0,1.000,1.000,1.000,-90.00,180.00,-4.50,OPEN,0
669667.063,2,0,0,1.000,1.000,1.000,-90.00,180.00,-4.50,OPEN,0
669667.067,2,0,0,1.000,1.000,1.000,-90.00,180.00,-4.50,OPEN,0
669667.075,2,0,0,1.000,1.000,1.000,-90.00,180.00,-4.50,OPEN,0
669667.080,2,0,0,1.000,1.000,1.000,-90.00,180.00,-4.50,OPEN,0
669667.083,2,0,0,1.000,1.000,1.000,-90.00,180.00,-4.50,OPEN,0
669667.091,2,0,0,1.000,1.000,1.000,-90.00,180.00,-4.50,OPEN,0
669667.099,2,0,0,1.000,1.000,1.000,-90.00,180.00,-4.50,OPEN,0
669667.107,2,0,0,1.000,1.000,1.000,-90.00,180.00,-4.50,OPEN,0
669667.115,2,0,0,1.000,1.000,1.000,-90.00,180.00,-4.50,OPEN,0
669667.120,2,0,0,1.000,1.000,1.000,-90.00,180.00,-4.50,OPEN,0
669667.124,2,0,0,1.000,1.000,1.000,-90.00,180.00,-4.50,OPEN,0
669667.128,2,0,0,1.000,1.000,1.000,-90.00,180.00,-4.50,OPEN,0
669667.135,2,0,0,1.000,1.000,1.000,-90.00,180.00,-4.50,OPEN,0
669667.139,2,0,0,1.000,1.000,1.000,-90.00,180.00,-4.50,OPEN,0
669667.144,2,0,0,1.000,1.000,1.000,-90.00,180.00,-9.00,OPEN,1
669667.148,2,0,0,1.000,1.000,1.000,-90.00,180.00,-9.00,OPEN,0
669667.152,2,0,0,1.000,1.000,1.000,-90.00,180.00,-9.00,OPEN,0
669667.156,2,0,0,1.000,1.000,1.000,-90.00,180.00,-9.00,OPEN,0
669667.160,2,0,0,1.000,1.000,1.000,-90.00,180.00,-9.00,OPEN,0
669667.164,2,0,0,1.000,1.000,1.000,-90.00,180.00,-9.00,OPEN,0
669667.168,2,0,0,1.000,1.000,1.000,-90.00,180.00,-9.00,OPEN,0
669667.172,2,0,0,1.000,1.000,1.000,-90.00,180.00,-9.00,OPEN,0
669667.176,2,0,0,1.000,1.000,1.000,-90.00,180.00,-9.00,OPEN,0
669667.184,2,0,0,1.000,1.000,1.000,-90.00,180.00,-9.00,OPEN,0
669667.189,2,0,0,1.000,1.000,1.000,-90.00,180.00,-9.00,OPEN,0
669667.197,2,0,0,1.000,1.000,1.000,-90.00,180.00,-9.00,OPEN,0
669667.201,2,0,0,1.000,1.000,1.000,-90.00,180.00,-9.00,OPEN,0
669667.204,2,0,0,1.000,1.000,1.000,-90.00,180.00,-9.00,OPEN,0
669667.208,2,0,0,1.000,1.000,1.000,-90.00,180.00,-9.00,OPEN,0
669667.212,2,0,0,1.000,1.000,1.000,-90.00,180.00,-9.00,OPEN,0
669667.216,2,0,0,1.000,1.000,1.000,-90.00,180.00,-9.00,OPEN,0
669667.223,2,0,0,1.000,1.000,1.000,-90.00,180.00,-9.00,OPEN,0
669667.226,2,0,0,1.000,1.000,1.000,-90.00,180.00,-9.00,OPEN,0
669667.231,2,0,0,1.000,1.000,1.000,-90.00,180.00,-9.00,OPEN,0
669667.242,2,0,0,1.000,1.000,1.000,-90.00,180.00,-9.00,OPEN,0
669667.246,2,0,0,1.000,1.000,1.000,-90.00,180.00,-13.50,OPEN,1
669667.250,2,0,0,1.000,1.000,1.000,-90.00,180.00,-13.50,OPEN,0
669667.254,2,0,0,1.000,1.000,1.000,-90.00,180.00,-13.50,OPEN,0
669667.262,2,0,0,1.000,1.000,1.000,-90.00,180.00,-13.50,OPEN,0
669667.266,2,0,0,1.000,1.000,1.000,-90.00,180.00,-13.50,OPEN,0
669667.270,2,0,0,1.000,1.000,1.000,-90.00,180.00,-13.50,OPEN,0
669667.274,2,0,0,1.000,1.000,1.000,-90.00,180.00,-13.50,OPEN,0
669667.282,2,0,0,1.000,1.000,1.000,-90.00,180.00,-13.50,OPEN,0
669667.287,2,0,0,1.000,1.000,1.000,-90.00,180.00,-13.50,OPEN,0
669667.291,2,0,0,1.000,1.000,1.000,-90.00,180.00,-13.50,OPEN,0
669667.300,2,0,0,1.000,1.000,1.000,-90.00,180.00,-13.50,OPEN,0
669667.305,2,0,0,1.000,1.000,1.000,-90.00,180.00,-13.50,OPEN,0
669667.315,2,0,0,1.000,1.000,1.000,-90.00,180.00,-13.50,OPEN,0
669667.319,2,0,0,1.000,1.000,1.000,-90.00,180.00,-13.50,OPEN,0
669667.323,2,0,0,1.000,1.000,1.000,-90.00,180.00,-13.50,OPEN,0
669667.328,2,0,0,1.000,1.000,1.000,-90.00,180.00,-13.50,OPEN,0
669667.332,2,0,0,1.000,1.000,1.000,-90.00,180.00,-13.50,OPEN,0
669667.336,2,0,0,1.000,1.000,1.000,-90.00,180.00,-13.50,OPEN,0
669667.340,2,0,0,1.000,1.000,1.000,-90.00,180.00,-13.50,OPEN,0
669667.344,2,0,0,1.000,1.000,1.000,-90.00,180.00,-13.50,OPEN,0
669667.348,2,0,0,1.000,1.000,1.000,-90.00,180.00,-18.00,OPEN,1
669667.352,2,0,0,1.000,1.000,1.000,-90.00,180.00,-18.00,OPEN,0
669667.360,2,0,0,1.000,1.000,1.000,-90.00,180.00,-18.00,OPEN,0
669667.364,2,0,0,1.000,1.000,1.000,-90.00,180.00,-18.00,OPEN,0
669667.368,2,0,0,1.000,1.000,1.000,-90.00,180.00,-18.00,OPEN,0
669667.372,2,0,0,1.000,1.000,1.000,-90.00,180.00,-18.00,OPEN,0
669667.377,2,0,0,1.000,1.000,1.000,-90.00,180.00,-18.00,OPEN,0
669667.381,2,0,0,1.000,1.000,1.000,-90.00,180.00,-18.00,OPEN,0
669667.385,2,0,0,1.000,1.000,1.000,-90.00,180.00,-18.00,OPEN,0
669667.390,2,0,0,1.000,1.000,1.000,-90.00,180.00,-18.00,OPEN,0
669667.393,2,0,0,1.000,1.000,1.000,-90.00,180.00,-18.00,OPEN,0
669667.402,2,0,0,1.000,1.000,1.000,-90.00,180.00,-18.00,OPEN,0
669667.412,2,0,0,1.000,1.000,1.000,-90.00,180.00,-18.00,OPEN,0
669667.421,2,0,0,1.000,1.000,1.000,-90.00,180.00,-18.00,OPEN,0
669667.429,2,0,0,1.000,1.000,1.000,-90.00,180.00,-18.00,OPEN,0
669667.437,2,0,0,1.000,1.000,1.000,-90.00,180.00,-18.00,OPEN,0
669667.447,2,0,0,1.000,1.000,1.000,-90.00,180.00,-18.00,OPEN,0
669667.455,2,0,0,1.000,1.000,1.000,-90.00,180.00,-22.50,OPEN,1
669667.464,2,0,0,1.000,1.000,1.000,-90.00,180.00,-22.50,OPEN,0
669667.472,2,0,0,1.000,1.000,1.000,-90.00,180.00,-22.50,OPEN,0
669667.481,2,0,0,1.000,1.000,1.000,-90.00,180.00,-22.50,OPEN,0
669667.491,2,0,0,1.000,1.000,1.000,-90.00,180.00,-22.50,OPEN,0
669667.499,2,0,0,1.000,1.000,1.000,-90.00,180.00,-22.50,OPEN,0
669667.508,2,0,0,1.000,1.000,1.000,-90.00,180.00,-22.50,OPEN,0
669667.518,2,0,0,1.000,1.000,1.000,-90.00,180.00,-22.50,OPEN,0
669667.526,2,0,0,1.000,1.000,1.000,-90.00,180.00,-22.50,OPEN,0
669667.534,2,0,0,1.000,1.000,1.000,-90.00,180.00,-22.50,OPEN,0
669667.542,2,0,0,1.000,1.000,1.000,-90.00,180.00,-22.50,OPEN,0
669667.550,2,0,0,0.999,1.000,1.000,-90.00,180.00,-22.50,OPEN,0
669667.559,2,0,0,0.998,1.000,1.000,-90.00,180.00,-27.00,OPEN,1
669667.567,2,0,0,0.994,1.000,1.000,-90.00,180.00,-27.00,OPEN,0
669667.579,2,0,0,0.963,1.000,1.000,-90.00,180.00,-27.00,OPEN,0
669667.590,2,0,0,0.904,1.000,1.000,-90.00,180.00,-27.00,OPEN,0
669667.597,2,0,0,0.723,1.000,1.000,-90.00,180.00,-27.00,OPEN,0
669667.606,2,0,0,0.684,1.000,1.000,-90.00,180.00,-27.00,OPEN,0
669667.614,2,0,0,0.927,1.000,1.000,-90.00,180.00,-27.00,OPEN,0
669667.623,2,0,0,0.966,1.000,1.000,-90.00,180.00,-27.00,OPEN,0
669667.631,2,0,0,0.999,1.000,1.000,-90.00,180.00,-27.00,OPEN,0
669667.640,2,0,0,1.000,1.000,1.000,-90.00,180.00,-27.00,OPEN,0
669667.649,2,0,0,1.000,1.000,1.000,-90.00,180.00,-27.00,OPEN,0
669667.658,2,0,0,1.000,1.000,1.000,-90.00,180.00,-27.00,OPEN,0
669667.666,2,0,0,1.000,1.000,1.000,-90.00,180.00,-31.50,OPEN,1
669667.674,0,0,0,1.000,1.000,1.000,-90.00,180.00,-31.50,OPEN,0
669667.682,0,0,0,1.000,1.000,1.000,-90.00,180.00,-31.50,OPEN,0
669667.694,0,0,0,1.000,1.000,1.000,-90.00,180.00,-31.50,OPEN,0
669667.707,0,0,0,1.000,1.000,1.000,-90.00,180.00,-31.50,OPEN,0
669667.724,0,0,0,1.000,1.000,1.000,-90.00,180.00,-31.50,OPEN,0
669667.735,0,0,0,1.000,1.000,1.000,-90.00,180.00,-31.50,OPEN,0
669667.751,0,0,0,1.000,1.000,1.000,-90.00,180.00,-31.50,OPEN,0
669667.765,0,0,0,1.000,1.000,1.000,-90.00,180.00,-31.50,OPEN,0
669667.775,0,0,0,1.000,1.000,1.000,-90.00,180.00,-31.50,OPEN,0
669667.785,0,0,0,1.000,1.000,1.000,-90.00,180.00,-31.50,OPEN,0
669667.794,0,0,0,1.000,1.000,1.000,-90.00,180.00,-31.50,OPEN,0
669667.804,0,0,0,1.000,1.000,1.000,-90.00,180.00,-31.50,OPEN,0
669667.813,0,0,0,1.000,1.000,1.000,-90.00,180.00,-31.50,OPEN,0
669667.822,0,0,0,1.000,1.000,1.000,-90.00,180.00,-31.50,OPEN,0
669667.832,0,0,0,1.000,1.000,1.000,-90.00,180.00,-31.50,OPEN,0
669667.840,0,0,0,1.000,1.000,1.000,-90.00,180.00,-31.50,OPEN,0
669667.849,0,0,0,1.000,1.000,1.000,-90.00,180.00,-31.50,OPEN,0
669667.858,0,0,0,1.000,1.000,1.000,-90.00,180.00,-31.50,OPEN,0
669667.866,0,0,0,1.000,1.000,1.000,-90.00,180.00,-31.50,OPEN,0
669667.874,0,0,0,1.000,1.000,1.000,-90.00,180.00,-31.50,OPEN,0
669667.884,0,0,0,1.000,1.000,1.000,-90.00,180.00,-31.50,OPEN,0
669667.892,0,0,0,1.000,1.000,1.000,-90.00,180.00,-31.50,OPEN,0
669667.897,0,0,0,1.000,1.000,1.000,-90.00,180.00,-31.50,OPEN,0
669667.901,0,0,0,1.000,1.000,1.000,-90.00,180.00,-31.50,OPEN,0
669667.909,0,0,0,1.000,1.000,1.000,-90.00,180.00,-31.50,OPEN,0
669667.919,0,0,0,1.000,1.000,1.000,-90.00,180.00,-31.50,OPEN,0
669667.928,0,0,0,1.000,1.000,1.000,-90.00,180.00,-31.50,OPEN,0
669667.937,0,0,0,1.000,1.000,1.000,-90.00,180.00,-31.50,OPEN,0
669667.946,0,0,0,1.000,1.000,1.000,-90.00,180.00,-31.50,OPEN,0
669667.955,0,0,0,1.000,1.000,1.000,-90.00,180.00,-31.50,OPEN,0
669667.964,0,0,0,1.000,1.000,1.000,-90.00,180.00,-31.50,OPEN,0
669667.974,0,0,0,1.000,1.000,1.000,-90.00,180.00,-31.50,OPEN,0
669667.982,0,0,0,1.000,1.000,1.000,-90.00,180.00,-31.50,OPEN,0
669667.991,0,0,0,1.000,1.000,1.000,-90.00,180.00,-31.50,OPEN,0
669667.999,0,0,0,1.000,1.000,1.000,-90.00,180.00,-31.50,OPEN,0
669668.007,0,0,0,1.000,1.000,1.000,-90.00,180.00,-31.50,OPEN,0
669668.016,0,0,0,1.000,1.000,1.000,-90.00,180.00,-31.50,OPEN,0
669668.024,0,0,0,1.000,1.000,1.000,-90.00,180.00,-31.50,OPEN,0
669668.032,0,0,0,1.000,1.000,1.000,-90.00,180.00,-31.50,OPEN,0
669668.040,0,0,0,1.000,1.000,1.000,-90.00,180.00,-31.50,OPEN,0
669668.048,0,0,0,1.000,1.000,1.000,-90.00,180.00,-31.50,OPEN,0
669668.056,0,0,0,1.000,1.000,1.000,-90.00,180.00,-31.50,OPEN,0
669668.064,0,0,0,1.000,1.000,1.000,-90.00,180.00,-31.50,OPEN,0
669668.072,0,0,0,1.000,1.000,1.000,-90.00,180.00,-31.50,OPEN,0
669668.081,0,0,0,1.000,1.000,1.000,-90.00,180.00,-31.50,OPEN,0
669668.089,0,0,0,1.000,1.000,1.000,-90.00,180.00,-31.50,OPEN,0
669668.098,0,0,0,1.000,1.000,1.000,-90.00,180.00,-31.50,OPEN,0
669668.106,0,0,0,1.000,1.000,1.000,-90.00,180.00,-31.50,OPEN,0
669668.111,0,0,0,1.000,1.000,1.000,-90.00,180.00,-31.50,OPEN,0
669668.119,0,0,0,1.000,1.000,1.000,-90.00,180.00,-31.50,OPEN,0
669668.126,0,0,0,1.000,1.000,1.000,-90.00,180.00,-31.50,OPEN,0
669668.135,0,0,0,1.000,1.000,1.000,-90.00,180.00,-31.50,OPEN,0
669668.144,0,0,0,1.000,1.000,1.000,-90.00,180.00,-31.50,OPEN,0
669668.153,0,0,0,1.000,1.000,1.000,-90.00,180.00,-31.50,OPEN,0
669668.162,0,0,0,1.000,1.000,1.000,-90.00,180.00,-31.50,OPEN,0
669668.170,0,0,0,1.000,1.000,1.000,-90.00,180.00,-31.50,OPEN,0
669668.179,0,0,0,1.000,1.000,1.000,-90.00,180.00,-31.50,OPEN,0
669668.188,0,0,0,1.000,1.000,1.000,-90.00,180.00,-31.50,OPEN,0
669668.197,0,0,0,1.000,1.000,1.000,-90.00,180.00,-31.50,OPEN,0
669668.201,0,0,0,1.000,1.000,1.000,-90.00,180.00,-31.50,OPEN,0
669668.207,0,0,0,1.000,1.000,1.000,-90.00,180.00,-31.50,OPEN,0
669668.217,0,0,0,1.000,1.000,1.000,-90.00,180.00,-31.50,OPEN,0
669668.226,0,0,0,1.000,1.000,1.000,-90.00,180.00,-31.50,OPEN,0
669668.236,0,0,0,1.000,1.000,1.000,-90.00,180.00,-31.50,OPEN,0
669668.244,0,0,0,1.000,1.000,1.000,-90.00,180.00,-31.50,OPEN,0
669668.253,0,0,0,1.000,1.000,1.000,-90.00,180.00,-31.50,OPEN,0
669668.262,0,0,0,1.000,1.000,1.000,-90.00,180.00,-31.50,OPEN,0
669668.272,0,0,0,1.000,1.000,1.000,-90.00,180.00,-31.50,OPEN,0
669668.280,0,0,0,1.000,1.000,1.000,-90.00,180.00,-31.50,OPEN,0
669668.290,0,0,0,1.000,1.000,1.000,-90.00,180.00,-31.50,OPEN,0
669668.297,0,0,0,1.000,1.000,1.000,-90.00,180.00,-31.50,OPEN,0
669668.307,0,0,0,1.000,1.000,1.000,-90.00,180.00,-31.50,OPEN,0
669668.316,0,0,0,1.000,1.000,1.000,-90.00,180.00,-31.50,OPEN,0
669668.324,0,0,0,1.000,1.000,1.000,-90.00,180.00,-31.50,OPEN,0
669668.329,0,0,0,1.000,1.000,1.000,-90.00,180.00,-31.50,OPEN,0
669668.334,0,0,0,1.000,1.000,1.000,-90.00,180.00,-31.50,OPEN,0
669668.343,0,0,0,1.000,1.000,1.000,-90.00,180.00,-31.50,OPEN,0
669668.352,0,0,0,1.000,1.000,1.000,-90.00,180.00,-31.50,OPEN,0
669668.361,0,0,0,1.000,1.000,1.000,-90.00,180.00,-31.50,OPEN,0
669668.371,0,0,0,1.000,1.000,1.000,-90.00,180.00,-31.50,OPEN,0
669668.380,0,0,0,1.000,1.000,1.000,-90.00,180.00,-31.50,OPEN,0
669668.388,0,0,0,1.000,1.000,1.000,-90.00,180.00,-31.50,OPEN,0
669668.397,0,0,0,1.000,1.000,1.000,-90.00,180.00,-31.50,OPEN,0
669668.407,0,0,0,1.000,1.000,1.000,-90.00,180.00,-31.50,OPEN,0
669668.416,0,0,0,1.000,1.000,1.000,-90.00,180.00,-31.50,OPEN,0
669668.425,0,0,0,1.000,1.000,1.000,-90.00,180.00,-31.50,OPEN,0
669668.432,0,0,0,1.000,1.000,1.000,-90.00,180.00,-31.50,OPEN,0
669668.442,0,0,0,1.000,1.000,1.000,-90.00,180.00,-31.50,OPEN,0
669668.451,0,0,0,1.000,1.000,1.000,-90.00,180.00,-31.50,OPEN,0
669668.460,0,0,0,1.000,1.000,1.000,-90.00,180.00,-31.50,OPEN,0
669668.470,0,0,0,1.000,1.000,1.000,-90.00,180.00,-31.50,OPEN,0
669668.479,0,0,0,1.000,1.000,1.000,-90.00,180.00,-31.50,OPEN,0
669668.487,0,0,0,1.000,1.000,1.000,-90.00,180.00,-31.50,OPEN,0
669668.496,0,0,0,1.000,1.000,1.000,-90.00,180.00,-31.50,OPEN,0
669668.504,0,0,0,1.000,1.000,1.000,-90.00,180.00,-31.50,OPEN,0
669668.510,0,0,0,1.000,1.000,1.000,-90.00,180.00,-31.50,OPEN,0
669668.514,0,0,0,1.000,1.000,1.000,-90.00,180.00,-31.50,OPEN,0
669668.518,0,0,0,1.000,1.000,1.000,-90.00,180.00,-31.50,OPEN,0
669668.522,0,0,0,1.000,1.000,1.000,-90.00,180.00,-31.50,OPEN,0
669668.526,0,0,0,1.000,1.000,1.000,-90.00,180.00,-31.50,OPEN,0
669668.530,0,0,0,1.000,1.000,1.000,-90.00,180.00,-31.50,OPEN,0
669668.536,0,0,0,1.000,1.000,1.000,-90.00,180.00,-31.50,OPEN,0
669668.541,0,0,0,0.999,1.000,1.000,-90.00,180.00,-31.50,OPEN,0
669668.546,0,0,0,0.997,1.000,1.000,-90.00,180.00,-31.50,OPEN,0
669668.551,0,0,0,0.997,1.000,1.000,-90.00,180.00,-31.50,OPEN,0
669668.556,0,0,0,0.991,1.000,1.000,-90.00,180.00,-31.50,OPEN,0
669668.564,0,0,0,0.989,1.000,1.000,-90.00,180.00,-31.50,OPEN,0
669668.572,0,0,0,0.999,1.000,1.000,-90.00,180.00,-31.50,OPEN,0
669668.583,0,0,0,1.000,1.000,1.000,-90.00,180.00,-31.50,OPEN,0
669668.589,0,0,0,1.000,1.000,1.000,-90.00,180.00,-31.50,OPEN,0
669668.596,0,0,0,1.000,1.000,1.000,-90.00,180.00,-31.50,OPEN,0
669668.605,0,0,0,1.000,1.000,1.000,-90.00,180.00,-31.50,OPEN,0
669668.614,0,0,0,1.000,1.000,1.000,-90.00,180.00,-31.50,OPEN,0
669668.622,0,0,0,1.000,1.000,1.000,-90.00,180.00,-31.50,OPEN,0
669668.631,0,0,0,1.000,1.000,1.000,-90.00,180.00,-31.50,OPEN,0
669668.640,0,0,0,1.000,1.000,1.000,-90.00,180.00,-31.50,OPEN,0
669668.650,0,0,0,1.000,1.000,1.000,-90.00,180.00,-31.50,OPEN,0
669668.659,0,0,0,1.000,1.000,1.000,-90.00,180.00,-31.50,OPEN,0
669668.668,0,0,0,1.000,1.000,1.000,-90.00,180.00,-31.50,OPEN,0
669668.677,0,0,0,1.000,1.000,1.000,-90.00,180.00,-31.50,OPEN,0
669668.685,0,0,0,1.000,1.000,1.000,-90.00,180.00,-31.50,OPEN,0
669668.693,0,0,0,1.000,1.000,1.000,-90.00,180.00,-31.50,OPEN,0
669668.701,0,0,0,1.000,1.000,1.000,-90.00,180.00,-31.50,OPEN,0
669668.709,0,0,0,1.000,1.000,1.000,-90.00,180.00,-31.50,OPEN,0
669668.719,0,0,0,1.000,1.000,1.000,-90.00,180.00,-31.50,OPEN,0
669668.729,0,0,0,1.000,1.000,1.000,-90.00,180.00,-31.50,OPEN,0
669668.738,0,0,0,1.000,1.000,1.000,-90.00,180.00,-31.50,OPEN,0
669668.746,0,0,0,1.000,1.000,1.000,-90.00,180.00,-31.50,OPEN,0
669668.751,0,0,0,1.000,1.000,1.000,-90.00,180.00,-31.50,OPEN,0
669668.759,0,0,0,1.000,1.000,1.000,-90.00,180.00,-31.50,OPEN,0
669668.770,0,0,0,1.000,1.000,1.000,-90.00,180.00,-31.50,OPEN,0
669668.780,0,0,0,1.000,1.000,1.000,-90.00,180.00,-31.50,OPEN,0
669668.788,0,0,0,1.000,1.000,1.000,-90.00,180.00,-31.50,OPEN,0
669668.797,0,0,0,1.000,1.000,1.000,-90.00,180.00,-31.50,OPEN,0
669668.805,0,0,0,0.863,1.000,1.000,-90.00,180.00,-31.50,OPEN,0
669668.813,0,0,0,0.956,1.000,1.000,-90.00,180.00,-31.50,OPEN,0
669668.822,0,0,0,0.993,1.000,1.000,-90.00,180.00,-31.50,OPEN,0
669668.829,0,0,0,0.993,1.000,1.000,-90.00,180.00,-31.50,OPEN,0
669668.838,0,0,0,0.970,1.000,1.000,-90.00,180.00,-31.50,OPEN,0
669668.846,0,0,0,0.616,1.000,1.000,-90.00,180.00,-31.50,OPEN,0
669668.854,0,0,0,0.909,1.000,1.000,-90.00,180.00,-31.50,OPEN,0
669668.862,0,0,0,0.990,1.000,1.000,-90.00,180.00,-31.50,OPEN,0
669668.870,0,0,0,0.994,1.000,1.000,-90.00,180.00,-31.50,OPEN,0
669668.875,0,0,0,0.995,1.000,1.000,-90.00,180.00,-31.50,OPEN,0
669668.879,0,0,0,0.996,1.000,1.000,-90.00,180.00,-31.50,OPEN,0
669668.884,0,0,0,0.995,1.000,1.000,-90.00,180.00,-31.50,OPEN,0
669668.889,0,0,0,0.993,1.000,1.000,-90.00,180.00,-31.50,OPEN,0
669668.893,3,0,0,0.990,1.000,1.000,-90.00,180.00,-31.50,CLOSED,0
669668.897,3,0,0,0.985,1.000,1.000,-90.00,180.00,-31.50,CLOSED,0
669668.905,3,0,0,0.983,1.000,1.000,-90.00,180.00,-31.50,CLOSED,0
669668.912,3,0,0,0.985,1.000,1.000,-90.00,180.00,-31.50,CLOSED,0
669668.920,3,0,0,0.989,1.000,1.000,-90.00,180.00,-31.50,CLOSED,0
669668.924,3,0,0,0.995,1.000,1.000,-90.00,180.00,-31.50,CLOSED,0
669668.928,3,0,0,0.997,1.000,1.000,-90.00,180.00,-31.50,CLOSED,0
669668.935,3,0,0,0.999,1.000,1.000,-90.00,180.00,-31.50,CLOSED,0
669668.941,3,0,0,0.999,1.000,1.000,-90.00,180.00,-31.50,CLOSED,0
669668.945,3,0,0,1.000,1.000,1.000,-90.00,180.00,-31.50,CLOSED,0
669668.953,3,0,0,1.000,1.000,1.000,-90.00,180.00,-31.50,CLOSED,0
669668.957,3,0,0,1.000,1.000,1.000,-90.00,180.00,-31.50,CLOSED,0
669668.962,3,0,0,1.000,1.000,1.000,-90.00,180.00,-31.50,CLOSED,0
669668.968,3,0,0,1.000,1.000,1.000,-90.00,180.00,-31.50,CLOSED,0
669668.976,3,0,0,1.000,1.000,1.000,-90.00,180.00,-31.50,CLOSED,0
669668.983,3,0,0,1.000,1.000,1.000,-90.00,180.00,-31.50,CLOSED,0
669668.991,3,0,0,1.000,1.000,1.000,-90.00,180.00,-31.50,CLOSED,0
669668.999,3,0,0,1.000,1.000,1.000,-90.00,180.00,-31.50,CLOSED,0
669669.005,3,0,0,1.000,1.000,1.000,-90.00,180.00,-31.50,CLOSED,0
669669.013,3,0,0,1.000,1.000,1.000,-90.00,180.00,-31.50,CLOSED,0
669669.020,3,0,0,1.000,1.000,1.000,-90.00,180.00,-31.50,CLOSED,0
669669.027,3,0,0,1.000,1.000,1.000,-90.00,180.00,-31.50,CLOSED,0
669669.031,3,0,0,1.000,1.000,1.000,-90.00,180.00,-31.50,CLOSED,0
669669.038,3,0,0,1.000,1.000,1.000,-90.00,180.00,-31.50,CLOSED,0
669669.043,3,0,0,1.000,1.000,1.000,-90.00,180.00,-31.50,CLOSED,0
669669.051,3,0,0,0.999,1.000,1.000,-90.00,180.00,-31.50,CLOSED,0
669669.060,3,0,0,0.997,1.000,1.000,-90.00,180.00,-31.50,CLOSED,0
669669.069,3,0,0,0.992,1.000,1.000,-90.00,180.00,-31.50,CLOSED,0
669669.077,3,0,0,0.987,1.000,1.000,-90.00,180.00,-31.50,CLOSED,0
669669.085,3,0,0,0.985,1.000,1.000,-90.00,180.00,-31.50,CLOSED,0
669669.093,3,0,0,0.989,1.000,1.000,-90.00,180.00,-31.50,CLOSED,0
669669.102,3,0,0,0.993,1.000,1.000,-90.00,180.00,-31.50,CLOSED,0
669669.110,3,0,0,0.996,1.000,1.000,-90.00,180.00,-31.50,CLOSED,0
669669.118,3,0,0,0.997,1.000,1.000,-90.00,180.00,-31.50,CLOSED,0
669669.126,3,0,0,0.998,1.000,1.000,-90.00,180.00,-31.50,CLOSED,0
669669.134,3,0,0,0.998,1.000,1.000,-90.00,180.00,-31.50,CLOSED,0
669669.140,3,0,0,0.999,1.000,1.000,-90.00,180.00,-31.50,CLOSED,0
669669.144,3,0,0,0.999,1.000,1.000,-90.00,180.00,-31.50,CLOSED,0
669669.148,3,0,0,0.999,1.000,1.000,-90.00,180.00,-31.50,CLOSED,0
669669.153,3,0,0,1.000,1.000,1.000,-90.00,180.00,-31.50,CLOSED,0
669669.163,3,0,0,1.000,1.000,1.000,-90.00,180.00,-31.50,CLOSED,0
669669.168,3,0,0,1.000,1.000,1.000,-90.00,180.00,-31.50,CLOSED,0
669669.173,3,0,0,1.000,1.000,1.000,-90.00,180.00,-31.50,CLOSED,0
669669.176,3,0,0,1.000,1.000,1.000,-90.00,180.00,-31.50,CLOSED,0
669669.181,3,0,0,1.000,1.000,1.000,-90.00,180.00,-31.50,CLOSED,0
669669.185,3,0,0,1.000,1.000,1.000,-90.00,180.00,-31.50,CLOSED,0
669669.189,3,0,0,1.000,1.000,1.000,-90.00,180.00,-31.50,CLOSED,0
669669.193,3,0,0,1.000,1.000,1.000,-90.00,180.00,-31.50,CLOSED,0
669669.197,3,0,0,1.000,1.000,1.000,-90.00,180.00,-31.50,CLOSED,0
669669.204,3,0,0,1.000,1.000,1.000,-90.00,180.00,-31.50,CLOSED,0
669669.212,3,0,0,1.000,1.000,1.000,-90.00,180.00,-31.50,CLOSED,0
669669.220,3,0,0,1.000,1.000,1.000,-90.00,180.00,-31.50,CLOSED,0
669669.227,3,0,0,1.000,1.000,1.000,-90.00,180.00,-31.50,CLOSED,0
669669.233,3,0,0,1.000,1.000,1.000,-90.00,180.00,-31.50,CLOSED,0
669669.242,3,0,0,1.000,1.000,1.000,-90.00,180.00,-31.50,CLOSED,0
669669.253,3,0,0,1.000,1.000,1.000,-90.00,180.00,-31.50,CLOSED,0
669669.264,3,0,0,1.000,1.000,1.000,-90.00,180.00,-31.50,CLOSED,0
669669.273,3,0,0,1.000,1.000,1.000,-90.00,180.00,-31.50,CLOSED,0
669669.282,3,0,0,1.000,1.000,1.000,-90.00,180.00,-31.50,CLOSED,0
669669.288,3,0,0,1.000,1.000,1.000,-90.00,180.00,-31.50,CLOSED,0
669669.295,3,0,0,1.000,1.000,1.000,-90.00,180.00,-31.50,CLOSED,0
669669.301,3,0,0,1.000,1.000,1.000,-90.00,180.00,-31.50,CLOSED,0
669669.306,3,0,0,1.000,1.000,1.000,-90.00,180.00,-31.50,CLOSED,0
669669.310,3,0,0,1.000,1.000,1.000,-90.00,180.00,-31.50,CLOSED,0
669669.315,3,0,0,1.000,1.000,1.000,-90.00,180.00,-31.50,CLOSED,0
669669.323,3,0,0,1.000,1.000,1.000,-90.00,180.00,-31.50,CLOSED,0
669669.334,3,0,0,1.000,1.000,1.000,-90.00,180.00,-31.50,CLOSED,0
669669.346,3,0,0,1.000,1.000,1.000,-90.00,180.00,-31.50,CLOSED,0
669669.355,3,0,0,1.000,1.000,1.000,-90.00,180.00,-31.50,CLOSED,0
669669.363,3,0,0,1.000,1.000,1.000,-90.00,180.00,-31.50,CLOSED,0
669669.371,3,0,0,1.000,1.000,1.000,-90.00,180.00,-31.50,CLOSED,0
669669.379,3,0,0,1.000,1.000,1.000,-90.00,180.00,-31.50,CLOSED,0
669669.388,3,0,0,1.000,1.000,1.000,-90.00,180.00,-31.50,CLOSED,0
669669.396,3,0,0,1.000,1.000,1.000,-90.00,180.00,-31.50,CLOSED,0
669669.404,3,0,0,1.000,1.000,1.000,-90.00,180.00,-31.50,CLOSED,0
669669.410,3,0,0,1.000,1.000,1.000,-90.00,180.00,-31.50,CLOSED,0
669669.416,3,0,0,1.000,1.000,1.000,-90.00,180.00,-31.50,CLOSED,0
669669.420,3,0,0,1.000,1.000,1.000,-90.00,180.00,-31.50,CLOSED,0
669669.428,3,0,0,1.000,1.000,1.000,-90.00,180.00,-31.50,CLOSED,0
669669.433,3,0,0,1.000,1.000,1.000,-90.00,180.00,-31.50,CLOSED,0
669669.438,3,0,0,1.000,1.000,1.000,-90.00,180.00,-31.50,CLOSED,0
669669.441,3,0,0,1.000,1.000,1.000,-90.00,180.00,-31.50,CLOSED,0
669669.446,3,0,0,1.000,1.000,1.000,-90.00,180.00,-31.50,CLOSED,0
669669.452,3,0,0,1.000,1.000,1.000,-90.00,180.00,-31.50,CLOSED,0
669669.458,3,0,0,1.000,1.000,1.000,-90.00,180.00,-31.50,CLOSED,0
669669.464,3,0,0,1.000,1.000,1.000,-90.00,180.00,-31.50,CLOSED,0
669669.468,3,0,0,1.000,1.000,1.000,-90.00,180.00,-31.50,CLOSED,0
669669.472,3,0,0,1.000,1.000,1.000,-90.00,180.00,-31.50,CLOSED,0
669669.479,3,0,0,1.000,1.000,1.000,-90.00,180.00,-31.50,CLOSED,0
669669.490,3,0,0,1.000,1.000,1.000,-90.00,180.00,-31.50,CLOSED,0
669669.498,3,0,0,1.000,1.000,1.000,-90.00,180.00,-31.50,CLOSED,0
669669.506,3,0,0,1.000,1.000,1.000,-90.00,180.00,-31.50,CLOSED,0
669669.512,3,0,0,1.000,1.000,1.000,-90.00,180.00,-31.50,CLOSED,0
669669.520,3,0,0,0.999,1.000,1.000,-90.00,180.00,-31.50,CLOSED,0
669669.528,3,0,0,0.999,1.000,1.000,-90.00,180.00,-31.50,CLOSED,0
669669.537,3,0,0,0.999,1.000,1.000,-90.00,180.00,-31.50,CLOSED,0
669669.546,3,0,0,1.000,1.000,1.000,-90.00,180.00,-31.50,CLOSED,0
669669.554,3,0,0,1.000,1.000,1.000,-90.00,180.00,-31.50,CLOSED,0
669669.561,3,0,0,1.000,1.000,1.000,-90.00,180.00,-31.50,CLOSED,0
669669.565,3,0,0,1.000,1.000,1.000,-90.00,180.00,-31.50,CLOSED,0
669669.572,3,0,0,1.000,1.000,1.000,-90.00,180.00,-31.50,CLOSED,0
669669.578,3,0,0,1.000,1.000,1.000,-90.00,180.00,-31.50,CLOSED,0
669669.585,3,0,0,1.000,1.000,1.000,-90.00,180.00,-31.50,CLOSED,0
669669.591,3,0,0,1.000,1.000,1.000,-90.00,180.00,-31.50,CLOSED,0
669669.599,3,0,0,1.000,1.000,1.000,-90.00,180.00,-31.50,CLOSED,0
669669.607,3,0,0,1.000,1.000,1.000,-90.00,180.00,-31.50,CLOSED,0
669669.611,3,0,0,1.000,1.000,1.000,-90.00,180.00,-31.50,CLOSED,0
669669.616,3,0,0,1.000,1.000,1.000,-90.00,180.00,-31.50,CLOSED,0
669669.621,3,0,0,1.000,1.000,1.000,-90.00,180.00,-31.50,CLOSED,0
669669.629,3,0,0,1.000,1.000,1.000,-90.00,180.00,-31.50,CLOSED,0
669669.638,3,0,0,1.000,1.000,1.000,-90.00,180.00,-31.50,CLOSED,0
669669.647,3,0,0,1.000,1.000,1.000,-90.00,180.00,-31.50,CLOSED,0
669669.656,3,0,0,0.984,1.000,1.000,-90.00,180.00,-31.50,CLOSED,0
669669.664,3,0,0,0.751,1.000,1.000,-90.00,180.00,-31.50,CLOSED,0
669669.673,3,0,0,0.676,1.000,1.000,-90.00,180.00,-31.50,CLOSED,0
669669.683,3,0,0,0.897,1.000,1.000,-90.00,180.00,-31.50,CLOSED,0
669669.693,3,0,0,0.933,1.000,1.000,-90.00,180.00,-31.50,CLOSED,0
669669.702,3,0,0,0.995,1.000,1.000,-90.00,180.00,-31.50,CLOSED,0
669669.710,3,0,0,1.000,1.000,1.000,-90.00,180.00,-31.50,CLOSED,0
669669.718,3,0,0,1.000,1.000,1.000,-90.00,180.00,-31.50,CLOSED,0
669669.727,3,0,0,1.000,1.000,1.000,-90.00,180.00,-31.50,CLOSED,0
669669.736,3,0,0,1.000,1.000,1.000,-90.00,180.00,-31.50,CLOSED,0
669669.744,0,0,0,1.000,1.000,1.000,-90.00,180.00,-31.50,CLOSED,0
669669.749,0,0,0,1.000,1.000,1.000,-90.00,180.00,-31.50,CLOSED,0
669669.753,0,0,0,1.000,1.000,1.000,-90.00,180.00,-31.50,CLOSED,0
669669.757,0,0,0,1.000,1.000,1.000,-90.00,180.00,-31.50,CLOSED,0
669669.761,0,0,0,1.000,1.000,1.000,-90.00,180.00,-31.50,CLOSED,0
669669.765,0,0,0,1.000,1.000,1.000,-90.00,180.00,-31.50,CLOSED,0
669669.769,0,0,0,1.000,1.000,1.000,-90.00,180.00,-31.50,CLOSED,0
669669.775,0,0,0,1.000,1.000,1.000,-90.00,180.00,-31.50,CLOSED,0
669669.780,0,0,0,1.000,1.000,1.000,-90.00,180.00,-31.50,CLOSED,0
669669.783,0,0,0,1.000,1.000,1.000,-90.00,180.00,-31.50,CLOSED,0
669669.788,0,0,0,1.000,1.000,1.000,-90.00,180.00,-31.50,CLOSED,0
669669.792,0,0,0,1.000,1.000,1.000,-90.00,180.00,-31.50,CLOSED,0
669669.795,0,0,0,1.000,1.000,1.000,-90.00,180.00,-31.50,CLOSED,0
669669.800,0,0,0,1.000,1.000,1.000,-90.00,180.00,-31.50,CLOSED,0
669669.806,0,0,0,1.000,1.000,1.000,-90.00,180.00,-31.50,CLOSED,0
669669.810,0,0,0,1.000,1.000,1.000,-90.00,180.00,-31.50,CLOSED,0
669669.814,0,0,0,1.000,1.000,1.000,-90.00,180.00,-31.50,CLOSED,0
669669.818,0,0,0,1.000,1.000,1.000,-90.00,180.00,-31.50,CLOSED,0
669669.821,0,0,0,1.000,1.000,1.000,-90.00,180.00,-31.50,CLOSED,0
669669.825,0,0,0,1.000,1.000,1.000,-90.00,180.00,-31.50,CLOSED,0
669669.829,0,0,0,1.000,1.000,1.000,-90.00,180.00,-31.50,CLOSED,0
669669.834,0,0,0,1.000,1.000,1.000,-90.00,180.00,-31.50,CLOSED,0
669669.840,0,0,0,1.000,1.000,1.000,-90.00,180.00,-31.50,CLOSED,0
669669.848,0,0,0,1.000,1.000,1.000,-90.00,180.00,-31.50,CLOSED,0
669669.854,0,0,0,1.000,1.000,1.000,-90.00,180.00,-31.50,CLOSED,0
669669.858,0,0,0,1.000,1.000,1.000,-90.00,180.00,-31.50,CLOSED,0
669669.865,0,0,0,1.000,1.000,1.000,-90.00,180.00,-31.50,CLOSED,0
669669.870,0,0,0,1.000,1.000,1.000,-90.00,180.00,-31.50,CLOSED,0
669669.878,0,0,0,1.000,1.000,1.000,-90.00,180.00,-31.50,CLOSED,0
669669.886,0,0,0,1.000,1.000,1.000,-90.00,180.00,-31.50,CLOSED,0
669669.894,0,0,0,1.000,1.000,1.000,-90.00,180.00,-31.50,CLOSED,0
669669.903,0,0,0,1.000,1.000,1.000,-90.00,180.00,-31.50,CLOSED,0
669669.909,0,0,0,1.000,1.000,1.000,-90.00,180.00,-31.50,CLOSED,0
669669.917,0,0,0,1.000,1.000,1.000,-90.00,180.00,-31.50,CLOSED,0
669669.924,0,0,0,1.000,1.000,1.000,-90.00,180.00,-31.50,CLOSED,0
669669.933,0,0,0,1.000,1.000,1.000,-90.00,180.00,-31.50,CLOSED,0
669669.941,0,0,0,1.000,1.000,1.000,-90.00,180.00,-31.50,CLOSED,0
669669.949,0,0,0,1.000,1.000,1.000,-90.00,180.00,-31.50,CLOSED,0
669669.958,0,0,0,1.000,1.000,1.000,-90.00,180.00,-31.50,CLOSED,0
669669.964,0,0,0,1.000,1.000,1.000,-90.00,180.00,-31.50,CLOSED,0
669669.969,0,0,0,1.000,1.000,1.000,-90.00,180.00,-31.50,CLOSED,0
669669.975,0,0,0,1.000,1.000,1.000,-90.00,180.00,-31.50,CLOSED,0
669669.984,0,0,0,1.000,1.000,1.000,-90.00,180.00,-31.50,CLOSED,0
669669.990,0,0,0,1.000,1.000,1.000,-90.00,180.00,-31.50,CLOSED,0
669669.999,0,0,0,1.000,1.000,1.000,-90.00,180.00,-31.50,CLOSED,0
669670.007,0,0,0,1.000,1.000,1.000,-90.00,180.00,-31.50,CLOSED,0
669670.011,0,0,0,1.000,1.000,1.000,-90.00,180.00,-31.50,CLOSED,0
669670.015,0,0,0,1.000,1.000,1.000,-90.00,180.00,-31.50,CLOSED,0
669670.020,0,0,0,1.000,1.000,1.000,-90.00,180.00,-31.50,CLOSED,0
669670.024,0,0,0,1.000,1.000,1.000,-90.00,180.00,-31.50,CLOSED,0
669670.031,0,0,0,1.000,1.000,1.000,-90.00,180.00,-31.50,CLOSED,0
669670.037,0,0,0,1.000,1.000,1.000,-90.00,180.00,-31.50,CLOSED,0
669670.043,0,0,0,1.000,1.000,1.000,-90.00,180.00,-31.50,CLOSED,0
669670.051,0,0,0,1.000,1.000,1.000,-90.00,180.00,-31.50,CLOSED,0
669670.056,0,0,0,1.000,1.000,1.000,-90.00,180.00,-31.50,CLOSED,0
669670.061,0,0,0,1.000,1.000,1.000,-90.00,180.00,-31.50,CLOSED,0
669670.066,0,0,0,1.000,1.000,1.000,-90.00,180.00,-31.50,CLOSED,0
669670.070,0,0,0,1.000,1.000,1.000,-90.00,180.00,-31.50,CLOSED,0
669670.078,0,0,0,1.000,1.000,1.000,-90.00,180.00,-31.50,CLOSED,0
669670.086,0,0,0,1.000,1.000,1.000,-90.00,180.00,-31.50,CLOSED,0
669670.090,0,0,0,1.000,1.000,1.000,-90.00,180.00,-31.50,CLOSED,0
669670.097,0,0,0,1.000,1.000,1.000,-90.00,180.00,-31.50,CLOSED,0
669670.105,0,0,0,1.000,1.000,1.000,-90.00,180.00,-31.50,CLOSED,0
669670.111,0,0,0,1.000,1.000,1.000,-90.00,180.00,-31.50,CLOSED,0
669670.119,0,0,0,1.000,1.000,1.000,-90.00,180.00,-31.50,CLOSED,0
669670.124,0,0,0,1.000,1.000,1.000,-90.00,180.00,-31.50,CLOSED,0
669670.128,0,0,0,1.000,1.000,1.000,-90.00,180.00,-31.50,CLOSED,0
669670.135,0,0,0,1.000,1.000,1.000,-90.00,180.00,-31.50,CLOSED,0
669670.143,0,0,0,1.000,1.000,1.000,-90.00,180.00,-31.50,CLOSED,0
669670.151,0,0,0,1.000,1.000,1.000,-90.00,180.00,-31.50,CLOSED,0
669670.160,0,0,0,1.000,1.000,1.000,-90.00,180.00,-31.50,CLOSED,0
669670.168,0,0,0,1.000,1.000,1.000,-90.00,180.00,-31.50,CLOSED,0
669670.177,0,0,0,1.000,1.000,1.000,-90.00,180.00,-31.50,CLOSED,0
669670.185,0,0,0,1.000,1.000,1.000,-90.00,180.00,-31.50,CLOSED,0
669670.194,0,0,0,1.000,1.000,1.000,-90.00,180.00,-31.50,CLOSED,0
669670.198,0,0,0,1.000,1.000,1.000,-90.00,180.00,-31.50,CLOSED,0
669670.205,0,0,0,1.000,1.000,1.000,-90.00,180.00,-31.50,CLOSED,0
669670.212,0,0,0,1.000,1.000,1.000,-90.00,180.00,-31.50,CLOSED,0
669670.220,0,0,0,1.000,1.000,1.000,-90.00,180.00,-31.50,CLOSED,0
669670.224,0,0,0,1.000,1.000,1.000,-90.00,180.00,-31.50,CLOSED,0
669670.228,0,0,0,1.000,1.000,1.000,-90.00,180.00,-31.50,CLOSED,0
669670.232,0,0,0,1.000,1.000,1.000,-90.00,180.00,-31.50,CLOSED,0
669670.239,0,0,0,1.000,1.000,1.000,-90.00,180.00,-31.50,CLOSED,0
669670.243,0,0,0,1.000,1.000,1.000,-90.00,180.00,-31.50,CLOSED,0
669670.247,0,0,0,1.000,1.000,1.000,-90.00,180.00,-31.50,CLOSED,0
669670.255,0,0,0,1.000,1.000,1.000,-90.00,180.00,-31.50,CLOSED,0
669670.260,0,0,0,1.000,1.000,1.000,-90.00,180.00,-31.50,CLOSED,0
669670.264,0,0,0,1.000,1.000,1.000,-90.00,180.00,-31.50,CLOSED,0
669670.268,0,0,0,1.000,1.000,1.000,-90.00,180.00,-31.50,CLOSED,0
669670.273,0,0,0,1.000,1.000,1.000,-90.00,180.00,-31.50,CLOSED,0
669670.276,0,0,0,1.000,1.000,1.000,-90.00,180.00,-31.50,CLOSED,0
669670.281,0,0,0,1.000,1.000,1.000,-90.00,180.00,-31.50,CLOSED,0
669670.288,0,0,0,1.000,1.000,1.000,-90.00,180.00,-31.50,CLOSED,0
669670.296,0,0,0,1.000,1.000,1.000,-90.00,180.00,-31.50,CLOSED,0
669670.305,0,0,0,1.000,1.000,1.000,-90.00,180.00,-31.50,CLOSED,0
669670.315,0,0,0,1.000,1.000,1.000,-90.00,180.00,-31.50,CLOSED,0
669670.321,0,0,0,1.000,1.000,1.000,-90.00,180.00,-31.50,CLOSED,0
669670.330,0,0,0,1.000,1.000,1.000,-90.00,180.00,-31.50,CLOSED,0
669670.340,0,0,0,1.000,1.000,1.000,-90.00,180.00,-31.50,CLOSED,0
669670.349,0,0,0,1.000,1.000,1.000,-90.00,180.00,-31.50,CLOSED,0
669670.358,0,0,0,1.000,1.000,1.000,-90.00,180.00,-31.50,CLOSED,0
669670.366,0,0,0,1.000,1.000,1.000,-90.00,180.00,-31.50,CLOSED,0
669670.374,0,0,0,1.000,1.000,1.000,-90.00,180.00,-31.50,CLOSED,0
669670.382,0,0,0,1.000,1.000,1.000,-90.00,180.00,-31.50,CLOSED,0
669670.391,0,0,0,1.000,1.000,1.000,-90.00,180.00,-31.50,CLOSED,0
669670.399,0,0,0,1.000,1.000,1.000,-90.00,180.00,-31.50,CLOSED,0
669670.407,0,0,0,1.000,1.000,1.000,-90.00,180.00,-31.50,CLOSED,0
669670.415,0,0,0,1.000,1.000,1.000,-90.00,180.00,-31.50,CLOSED,0
669670.424,0,0,0,1.000,1.000,1.000,-90.00,180.00,-31.50,CLOSED,0
669670.431,0,0,0,1.000,1.000,1.000,-90.00,180.00,-31.50,CLOSED,0
669670.435,0,0,0,1.000,1.000,1.000,-90.00,180.00,-31.50,CLOSED,0
669670.440,0,0,0,1.000,1.000,1.000,-90.00,180.00,-31.50,CLOSED,0
669670.443,0,0,0,1.000,1.000,1.000,-90.00,180.00,-31.50,CLOSED,0
669670.447,0,0,0,1.000,1.000,1.000,-90.00,180.00,-31.50,CLOSED,0
669670.451,0,0,0,1.000,1.000,1.000,-90.00,180.00,-31.50,CLOSED,0
669670.455,0,0,0,1.000,1.000,1.000,-90.00,180.00,-31.50,CLOSED,0
669670.465,0,0,0,1.000,1.000,1.000,-90.00,180.00,-31.50,CLOSED,0
669670.475,0,0,0,1.000,1.000,1.000,-90.00,180.00,-31.50,CLOSED,0
669670.484,0,0,0,1.000,1.000,1.000,-90.00,180.00,-31.50,CLOSED,0
669670.489,0,0,0,1.000,1.000,1.000,-90.00,180.00,-31.50,CLOSED,0
669670.498,0,0,0,1.000,1.000,1.000,-90.00,180.00,-31.50,CLOSED,0
669670.507,0,0,0,1.000,1.000,1.000,-90.00,180.00,-31.50,CLOSED,0
669670.516,0,0,0,1.000,1.000,1.000,-90.00,180.00,-31.50,CLOSED,0
669670.522,0,0,0,1.000,1.000,1.000,-90.00,180.00,-31.50,CLOSED,0
669670.531,0,0,0,1.000,1.000,1.000,-90.00,180.00,-31.50,CLOSED,0
669670.540,0,0,0,1.000,1.000,1.000,-90.00,180.00,-31.50,CLOSED,0
669670.549,0,0,0,1.000,1.000,1.000,-90.00,180.00,-31.50,CLOSED,0
669670.558,0,0,0,1.000,1.000,1.000,-90.00,180.00,-31.50,CLOSED,0
669670.566,0,0,0,1.000,1.000,1.000,-90.00,180.00,-31.50,CLOSED,0
669670.577,0,0,0,1.000,1.000,1.000,-90.00,180.00,-31.50,CLOSED,0
669670.586,0,0,0,1.000,1.000,1.000,-90.00,180.00,-31.50,CLOSED,0
669670.591,0,0,0,1.000,1.000,1.000,-90.00,180.00,-31.50,CLOSED,0
669670.599,0,0,0,1.000,1.000,1.000,-90.00,180.00,-31.50,CLOSED,0
669670.609,0,0,0,1.000,1.000,1.000,-90.00,180.00,-31.50,CLOSED,0
669670.617,0,0,0,1.000,1.000,1.000,-90.00,180.00,-31.50,CLOSED,0
669670.626,0,0,0,1.000,1.000,1.000,-90.00,180.00,-31.50,CLOSED,0
669670.634,0,0,0,1.000,1.000,1.000,-90.00,180.00,-31.50,CLOSED,0
669670.642,0,0,0,1.000,1.000,1.000,-90.00,180.00,-31.50,CLOSED,0
669670.650,0,0,0,1.000,1.000,1.000,-90.00,180.00,-31.50,CLOSED,0
669670.660,0,0,0,1.000,1.000,1.000,-90.00,180.00,-31.50,CLOSED,0
669670.668,0,0,0,1.000,1.000,1.000,-90.00,180.00,-31.50,CLOSED,0
669670.677,0,0,0,1.000,1.000,1.000,-90.00,180.00,-31.50,CLOSED,0
669670.684,0,0,0,1.000,1.000,1.000,-90.00,180.00,-31.50,CLOSED,0
669670.693,0,0,0,1.000,1.000,1.000,-90.00,180.00,-31.50,CLOSED,0
669670.700,0,0,0,1.000,1.000,1.000,-90.00,180.00,-31.50,CLOSED,0
669670.705,0,0,0,1.000,1.000,1.000,-90.00,180.00,-31.50,CLOSED,0
669670.712,0,0,0,1.000,1.000,1.000,-90.00,180.00,-31.50,CLOSED,0
669670.716,0,0,0,1.000,1.000,1.000,-90.00,180.00,-31.50,CLOSED,0
669670.722,0,0,0,1.000,1.000,1.000,-90.00,180.00,-31.50,CLOSED,0
669670.726,0,0,0,1.000,1.000,1.000,-90.00,180.00,-31.50,CLOSED,0
669670.734,0,0,0,1.000,1.000,1.000,-90.00,180.00,-31.50,CLOSED,0
669670.738,0,0,0,1.000,1.000,1.000,-90.00,180.00,-31.50,CLOSED,0
669670.742,0,0,0,1.000,1.000,1.000,-90.00,180.00,-31.50,CLOSED,0
669670.745,0,0,0,1.000,1.000,1.000,-90.00,180.00,-31.50,CLOSED,0
669670.749,0,0,0,1.000,1.000,1.000,-90.00,180.00,-31.50,CLOSED,0
669670.754,0,0,0,1.000,1.000,1.000,-90.00,180.00,-31.50,CLOSED,0
669670.762,0,0,0,1.000,1.000,1.000,-90.00,180.00,-31.50,CLOSED,0
669670.769,0,0,0,1.000,1.000,1.000,-90.00,180.00,-31.50,CLOSED,0
669670.778,0,0,0,1.000,1.000,1.000,-90.00,180.00,-31.50,CLOSED,0
669670.782,0,0,0,1.000,1.000,1.000,-90.00,180.00,-31.50,CLOSED,0
669670.786,0,0,0,1.000,1.000,1.000,-90.00,180.00,-31.50,CLOSED,0
669670.789,0,0,0,1.000,1.000,1.000,-90.00,180.00,-31.50,CLOSED,0
669670.793,0,0,0,1.000,1.000,1.000,-90.00,180.00,-31.50,CLOSED,0
669670.797,0,0,0,1.000,1.000,1.000,-90.00,180.00,-31.50,CLOSED,0
669670.803,0,0,0,1.000,1.000,1.000,-90.00,180.00,-31.50,CLOSED,0
669670.812,0,0,0,1.000,1.000,1.000,-90.00,180.00,-31.50,CLOSED,0
669670.816,0,0,0,1.000,1.000,1.000,-90.00,180.00,-31.50,CLOSED,0
669670.824,0,0,0,1.000,1.000,1.000,-90.00,180.00,-31.50,CLOSED,0
669670.827,0,0,0,1.000,1.000,1.000,-90.00,180.00,-31.50,CLOSED,0
669670.834,0,0,0,1.000,1.000,1.000,-90.00,180.00,-31.50,CLOSED,0
669670.840,0,0,0,1.000,1.000,1.000,-90.00,180.00,-31.50,CLOSED,0
669670.851,0,0,0,1.000,1.000,1.000,-90.00,180.00,-31.50,CLOSED,0
669670.855,0,0,0,1.000,1.000,1.000,-90.00,180.00,-31.50,CLOSED,0
669670.859,0,0,0,1.000,1.000,1.000,-90.00,180.00,-31.50,CLOSED,0
669670.863,0,0,0,1.000,1.000,1.000,-90.00,180.00,-31.50,CLOSED,0
669670.870,0,0,0,1.000,1.000,1.000,-90.00,180.00,-31.50,CLOSED,0
669670.878,0,0,0,1.000,1.000,1.000,-90.00,180.00,-31.50,CLOSED,0
669670.882,0,0,0,1.000,1.000,1.000,-90.00,180.00,-31.50,CLOSED,0
669670.887,0,0,0,1.000,1.000,1.000,-90.00,180.00,-31.50,CLOSED,0
669670.891,0,0,0,1.000,1.000,1.000,-90.00,180.00,-31.50,CLOSED,0
669670.899,0,0,0,1.000,1.000,1.000,-90.00,180.00,-31.50,CLOSED,0
669670.903,0,0,0,1.000,1.000,1.000,-90.00,180.00,-31.50,CLOSED,0
669670.907,0,0,0,1.000,1.000,1.000,-90.00,180.00,-31.50,CLOSED,0
669670.911,0,0,0,1.000,1.000,1.000,-90.00,180.00,-31.50,CLOSED,0
669670.915,0,0,0,1.000,1.000,1.000,-90.00,180.00,-31.50,CLOSED,0
669670.921,0,0,0,1.000,1.000,1.000,-90.00,180.00,-31.50,CLOSED,0
669670.925,0,0,0,1.000,1.000,1.000,-90.00,180.00,-31.50,CLOSED,0
669670.933,0,0,0,1.000,1.000,1.000,-90.00,180.00,-31.50,CLOSED,0
669670.937,0,0,0,1.000,1.000,1.000,-90.00,180.00,-31.50,CLOSED,0
669670.945,0,0,0,1.000,1.000,1.000,-90.00,180.00,-31.50,CLOSED,0
669670.948,0,0,0,1.000,1.000,1.000,-90.00,180.00,-31.50,CLOSED,0
669670.952,0,0,0,1.000,1.000,1.000,-90.00,180.00,-31.50,CLOSED,0
669670.956,0,0,0,1.000,1.000,1.000,-90.00,180.00,-31.50,CLOSED,0
669670.960,0,0,0,1.000,1.000,1.000,-90.00,180.00,-31.50,CLOSED,0
669670.963,0,0,0,1.000,1.000,1.000,-90.00,180.00,-31.50,CLOSED,0
669670.967,0,0,0,1.000,1.000,1.000,-90.00,180.00,-31.50,CLOSED,0
669670.973,0,0,0,1.000,1.000,1.000,-90.00,180.00,-31.50,CLOSED,0
669670.978,0,0,0,1.000,1.000,1.000,-90.00,180.00,-31.50,CLOSED,0
669670.982,0,0,0,1.000,1.000,1.000,-90.00,180.00,-31.50,CLOSED,0
669670.986,0,0,0,1.000,1.000,1.000,-90.00,180.00,-31.50,CLOSED,0
669670.990,0,0,0,1.000,1.000,1.000,-90.00,180.00,-31.50,CLOSED,0
669670.994,0,0,0,1.000,1.000,1.000,-90.00,180.00,-31.50,CLOSED,0
669670.999,0,0,0,1.000,1.000,1.000,-90.00,180.00,-31.50,CLOSED,0
669671.002,0,0,0,1.000,1.000,1.000,-90.00,180.00,-31.50,CLOSED,0
669671.007,0,0,0,1.000,1.000,1.000,-90.00,180.00,-31.50,CLOSED,0
669671.012,0,0,0,1.000,1.000,1.000,-90.00,180.00,-31.50,CLOSED,0
669671.015,0,0,0,1.000,1.000,1.000,-90.00,180.00,-31.50,CLOSED,0
669671.020,0,0,0,1.000,1.000,1.000,-90.00,180.00,-31.50,CLOSED,0
669671.032,0,0,0,1.000,1.000,1.000,-90.00,180.00,-31.50,CLOSED,0
669671.039,0,0,0,1.000,1.000,1.000,-90.00,180.00,-31.50,CLOSED,0
669671.047,0,0,0,1.000,1.000,1.000,-90.00,180.00,-31.50,CLOSED,0
669671.053,0,0,0,1.000,1.000,1.000,-90.00,180.00,-31.50,CLOSED,0
669671.062,0,0,0,1.000,1.000,1.000,-90.00,180.00,-31.50,CLOSED,0
669671.070,0,0,0,1.000,1.000,1.000,-90.00,180.00,-31.50,CLOSED,0
669671.078,0,0,0,1.000,1.000,1.000,-90.00,180.00,-31.50,CLOSED,0
669671.086,0,0,0,1.000,1.000,1.000,-90.00,180.00,-31.50,CLOSED,0
669671.094,0,0,0,1.000,1.000,1.000,-90.00,180.00,-31.50,CLOSED,0
669671.099,0,0,0,1.000,1.000,1.000,-90.00,180.00,-31.50,CLOSED,0
669671.106,0,0,0,1.000,1.000,1.000,-90.00,180.00,-31.50,CLOSED,0
669671.114,0,0,0,1.000,1.000,1.000,-90.00,180.00,-31.50,CLOSED,0
669671.121,0,0,0,1.000,1.000,1.000,-90.00,180.00,-31.50,CLOSED,0
669671.125,0,0,0,1.000,1.000,1.000,-90.00,180.00,-31.50,CLOSED,0
669671.132,0,0,0,1.000,1.000,1.000,-90.00,180.00,-31.50,CLOSED,0
669671.135,0,0,0,1.000,1.000,1.000,-90.00,180.00,-31.50,CLOSED,0
669671.143,0,0,0,1.000,1.000,1.000,-90.00,180.00,-31.50,CLOSED,0
669671.146,0,0,0,1.000,1.000,1.000,-90.00,180.00,-31.50,CLOSED,0
669671.152,0,0,0,1.000,1.000,1.000,-90.00,180.00,-31.50,CLOSED,0
669671.160,0,0,0,1.000,1.000,1.000,-90.00,180.00,-31.50,CLOSED,0
669671.165,0,0,0,1.000,1.000,1.000,-90.00,180.00,-31.50,CLOSED,0
669671.169,0,0,0,1.000,1.000,1.000,-90.00,180.00,-31.50,CLOSED,0
669671.175,0,0,0,1.000,1.000,1.000,-90.00,180.00,-31.50,CLOSED,0
669671.179,0,0,0,1.000,1.000,1.000,-90.00,180.00,-31.50,CLOSED,0
669671.182,0,0,0,1.000,1.000,1.000,-90.00,180.00,-31.50,CLOSED,0
669671.186,0,0,0,1.000,1.000,1.000,-90.00,180.00,-31.50,CLOSED,0
669671.190,0,0,0,1.000,1.000,1.000,-90.00,180.00,-31.50,CLOSED,0
669671.197,0,0,0,1.000,1.000,1.000,-90.00,180.00,-31.50,CLOSED,0
669671.201,0,0,0,1.000,1.000,1.000,-90.00,180.00,-31.50,CLOSED,0
669671.205,0,0,0,1.000,1.000,1.000,-90.00,180.00,-31.50,CLOSED,0
669671.209,0,0,0,1.000,1.000,1.000,-90.00,180.00,-31.50,CLOSED,0
669671.213,0,0,0,1.000,1.000,1.000,-90.00,180.00,-31.50,CLOSED,0
669671.217,0,0,0,1.000,1.000,1.000,-90.00,180.00,-31.50,CLOSED,0
669671.221,0,0,0,1.000,1.000,1.000,-90.00,180.00,-31.50,CLOSED,0
669671.226,0,0,0,1.000,1.000,1.000,-90.00,180.00,-31.50,CLOSED,0
669671.230,0,0,0,1.000,1.000,1.000,-90.00,180.00,-31.50,CLOSED,0
669671.233,0,0,0,1.000,1.000,1.000,-90.00,180.00,-31.50,CLOSED,0
669671.237,0,0,0,1.000,1.000,1.000,-90.00,180.00,-31.50,CLOSED,0
669671.241,0,0,0,1.000,1.000,1.000,-90.00,180.00,-31.50,CLOSED,0
669671.244,0,0,0,1.000,1.000,1.000,-90.00,180.00,-31.50,CLOSED,0
669671.248,0,0,0,1.000,1.000,1.000,-90.00,180.00,-31.50,CLOSED,0
669671.252,0,0,0,1.000,1.000,1.000,-90.00,180.00,-31.50,CLOSED,0
669671.258,0,0,0,1.000,1.000,1.000,-90.00,180.00,-31.50,CLOSED,0
669671.262,0,0,0,1.000,1.000,1.000,-90.00,180.00,-31.50,CLOSED,0
669671.265,0,0,0,1.000,1.000,1.000,-90.00,180.00,-31.50,CLOSED,0
669671.271,0,0,0,1.000,1.000,1.000,-90.00,180.00,-31.50,CLOSED,0
669671.276,0,0,0,1.000,1.000,1.000,-90.00,180.00,-31.50,CLOSED,0
669671.280,0,0,0,1.000,1.000,1.000,-90.00,180.00,-31.50,CLOSED,0
669671.284,0,0,0,1.000,1.000,1.000,-90.00,180.00,-31.50,CLOSED,0
669671.288,0,0,0,1.000,1.000,1.000,-90.00,180.00,-31.50,CLOSED,0
669671.292,0,0,0,1.000,1.000,1.000,-90.00,180.00,-31.50,CLOSED,0
669671.296,0,0,0,1.000,1.000,1.000,-90.00,180.00,-31.50,CLOSED,0
669671.300,0,0,0,1.000,1.000,1.000,-90.00,180.00,-31.50,CLOSED,0
669671.304,0,0,0,1.000,1.000,1.000,-90.00,180.00,-31.50,CLOSED,0
669671.307,0,0,0,1.000,1.000,1.000,-90.00,180.00,-31.50,CLOSED,0
669671.311,0,0,0,1.000,1.000,1.000,-90.00,180.00,-31.50,CLOSED,0
669671.316,0,0,0,1.000,1.000,1.000,-90.00,180.00,-31.50,CLOSED,0
669671.319,0,0,0,1.000,1.000,1.000,-90.00,180.00,-31.50,CLOSED,0
669671.323,0,0,0,1.000,1.000,1.000,-90.00,180.00,-31.50,CLOSED,0
669671.327,0,0,0,1.000,1.000,1.000,-90.00,180.00,-31.50,CLOSED,0
669671.332,0,0,0,0.996,1.000,1.000,-90.00,180.00,-31.50,CLOSED,0
669671.339,0,0,0,0.993,1.000,1.000,-90.00,180.00,-31.50,CLOSED,0
669671.342,0,0,0,1.000,1.000,1.000,-90.00,180.00,-31.50,CLOSED,0
669671.348,0,0,0,1.000,1.000,1.000,-90.00,180.00,-31.50,CLOSED,0
669671.352,0,0,0,1.000,1.000,1.000,-90.00,180.00,-31.50,CLOSED,0
669671.356,0,0,0,1.000,1.000,1.000,-90.00,180.00,-31.50,CLOSED,0
669671.360,0,0,0,1.000,1.000,1.000,-90.00,180.00,-31.50,CLOSED,0
669671.366,0,0,0,1.000,1.000,1.000,-90.00,180.00,-31.50,CLOSED,0
669671.374,0,0,0,0.990,1.000,1.000,-90.00,180.00,-31.50,CLOSED,0
669671.379,0,0,0,0.999,1.000,1.000,-90.00,180.00,-31.50,CLOSED,0
669671.387,0,0,0,0.991,1.000,1.000,-90.00,180.00,-31.50,CLOSED,0
669671.395,0,0,0,0.992,1.000,1.000,-90.00,180.00,-31.50,CLOSED,0
669671.402,0,0,0,0.998,1.000,1.000,-90.00,180.00,-31.50,CLOSED,0
669671.411,0,0,0,1.000,1.000,1.000,-90.00,180.00,-31.50,CLOSED,0
669671.419,0,0,0,1.000,1.000,1.000,-90.00,180.00,-31.50,CLOSED,0
669671.426,0,0,0,1.000,1.000,1.000,-90.00,180.00,-31.50,CLOSED,0
669671.433,0,0,0,1.000,1.000,1.000,-90.00,180.00,-31.50,CLOSED,0
669671.440,0,0,0,1.000,1.000,1.000,-90.00,180.00,-31.50,CLOSED,0
669671.448,0,0,0,1.000,1.000,1.000,-90.00,180.00,-31.50,CLOSED,0
669671.453,0,0,0,1.000,1.000,1.000,-90.00,180.00,-31.50,CLOSED,0
669671.457,0,0,0,1.000,1.000,1.000,-90.00,180.00,-31.50,CLOSED,0
669671.462,0,0,0,1.000,1.000,1.000,-90.00,180.00,-31.50,CLOSED,0
669671.466,0,0,0,1.000,1.000,1.000,-90.00,180.00,-31.50,CLOSED,0
669671.470,0,0,0,1.000,1.000,1.000,-90.00,180.00,-31.50,CLOSED,0
669671.476,0,0,0,1.000,1.000,1.000,-90.00,180.00,-31.50,CLOSED,0
669671.480,0,0,0,1.000,1.000,1.000,-90.00,180.00,-31.50,CLOSED,0
669671.484,0,0,0,1.000,1.000,1.000,-90.00,180.00,-31.50,CLOSED,0
669671.489,0,0,0,1.000,1.000,1.000,-90.00,180.00,-31.50,CLOSED,0
669671.494,0,0,0,1.000,1.000,1.000,-90.00,180.00,-31.50,CLOSED,0
669671.498,0,0,0,1.000,1.000,1.000,-90.00,180.00,-31.50,CLOSED,0
669671.502,0,0,0,1.000,1.000,1.000,-90.00,180.00,-31.50,CLOSED,0
669671.506,0,0,0,1.000,1.000,1.000,-90.00,180.00,-31.50,CLOSED,0
669671.510,0,0,0,1.000,1.000,1.000,-90.00,180.00,-31.50,CLOSED,0
669671.517,0,0,0,1.000,1.000,1.000,-90.00,180.00,-31.50,CLOSED,0
669671.522,0,0,0,1.000,1.000,1.000,-90.00,180.00,-31.50,CLOSED,0
669671.526,0,0,0,1.000,1.000,1.000,-90.00,180.00,-31.50,CLOSED,0
669671.530,0,0,0,1.000,1.000,1.000,-90.00,180.00,-31.50,CLOSED,0
669671.534,0,0,0,1.000,1.000,1.000,-90.00,180.00,-31.50,CLOSED,0
669671.539,0,0,0,1.000,1.000,1.000,-90.00,180.00,-31.50,CLOSED,0
669671.543,0,0,0,1.000,1.000,1.000,-90.00,180.00,-31.50,CLOSED,0
669671.547,0,0,0,1.000,1.000,1.000,-90.00,180.00,-31.50,CLOSED,0
669671.551,0,0,0,1.000,1.000,1.000,-90.00,180.00,-31.50,CLOSED,0
669671.555,0,0,0,1.000,1.000,1.000,-90.00,180.00,-31.50,CLOSED,0
669671.559,0,0,0,1.000,1.000,1.000,-90.00,180.00,-31.50,CLOSED,0
669671.562,0,0,0,1.000,1.000,1.000,-90.00,180.00,-31.50,CLOSED,0
669671.566,0,0,0,1.000,1.000,1.000,-90.00,180.00,-31.50,CLOSED,0
669671.571,0,0,0,1.000,1.000,1.000,-90.00,180.00,-31.50,CLOSED,0
669671.580,0,0,0,1.000,1.000,1.000,-90.00,180.00,-31.50,CLOSED,0
669671.585,0,0,0,1.000,1.000,1.000,-90.00,180.00,-31.50,CLOSED,0
669671.591,0,0,0,1.000,1.000,1.000,-90.00,180.00,-31.50,CLOSED,0
669671.600,0,0,0,1.000,1.000,1.000,-90.00,180.00,-31.50,CLOSED,0
669671.604,0,0,0,1.000,1.000,1.000,-90.00,180.00,-31.50,CLOSED,0
669671.612,0,0,0,1.000,1.000,1.000,-90.00,180.00,-31.50,CLOSED,0
669671.616,0,0,0,1.000,1.000,1.000,-90.00,180.00,-31.50,CLOSED,0
669671.620,0,0,0,1.000,1.000,1.000,-90.00,180.00,-31.50,CLOSED,0
669671.624,0,0,0,1.000,1.000,1.000,-90.00,180.00,-31.50,CLOSED,0
669671.627,0,0,0,1.000,1.000,1.000,-90.00,180.00,-31.50,CLOSED,0
669671.631,0,0,0,1.000,1.000,1.000,-90.00,180.00,-31.50,CLOSED,0
669671.643,0,0,0,1.000,1.000,1.000,-90.00,180.00,-31.50,CLOSED,0
669671.652,0,0,0,1.000,1.000,1.000,-90.00,180.00,-31.50,CLOSED,0
669671.662,0,0,0,1.000,1.000,1.000,-90.00,180.00,-31.50,CLOSED,0
669671.667,0,0,0,1.000,1.000,1.000,-90.00,180.00,-31.50,CLOSED,0
669671.680,0,0,0,1.000,1.000,1.000,-90.00,180.00,-31.50,CLOSED,0
669671.689,0,0,0,1.000,1.000,1.000,-90.00,180.00,-31.50,CLOSED,0
669671.698,0,0,0,1.000,1.000,1.000,-90.00,180.00,-31.50,CLOSED,0
669671.706,0,0,0,1.000,1.000,1.000,-90.00,180.00,-31.50,CLOSED,0
669671.714,0,0,0,1.000,1.000,1.000,-90.00,180.00,-31.50,CLOSED,0
669671.722,0,0,0,1.000,1.000,1.000,-90.00,180.00,-31.50,CLOSED,0
669671.730,0,0,0,1.000,1.000,1.000,-90.00,180.00,-31.50,CLOSED,0
669671.738,0,0,0,1.000,1.000,1.000,-90.00,180.00,-31.50,CLOSED,0
669671.746,0,0,0,1.000,1.000,1.000,-90.00,180.00,-31.50,CLOSED,0
669671.752,0,0,0,1.000,1.000,1.000,-90.00,180.00,-31.50,CLOSED,0
669671.757,0,0,0,1.000,1.000,1.000,-90.00,180.00,-31.50,CLOSED,0
669671.761,0,0,0,1.000,1.000,1.000,-90.00,180.00,-31.50,CLOSED,0
669671.765,0,0,0,1.000,1.000,1.000,-90.00,180.00,-31.50,CLOSED,0
669671.769,0,0,0,1.000,1.000,1.000,-90.00,180.00,-31.50,CLOSED,0
669671.773,0,0,0,1.000,1.000,1.000,-90.00,180.00,-31.50,CLOSED,0
669671.777,0,0,0,1.000,1.000,1.000,-90.00,180.00,-31.50,CLOSED,0
669671.781,0,0,0,1.000,1.000,1.000,-90.00,180.00,-31.50,CLOSED,0
669671.785,0,0,0,1.000,1.000,1.000,-90.00,180.00,-31.50,CLOSED,0
669671.789,0,0,0,1.000,1.000,1.000,-90.00,180.00,-31.50,CLOSED,0
669671.794,0,0,0,1.000,1.000,1.000,-90.00,180.00,-31.50,CLOSED,0
669671.797,0,0,0,1.000,1.000,1.000,-90.00,180.00,-31.50,CLOSED,0
669671.805,0,0,0,1.000,1.000,1.000,-90.00,180.00,-31.50,CLOSED,0
669671.813,0,0,0,1.000,1.000,1.000,-90.00,180.00,-31.50,CLOSED,0
669671.817,0,0,0,1.000,1.000,1.000,-90.00,180.00,-31.50,CLOSED,0
669671.822,0,0,0,1.000,1.000,1.000,-90.00,180.00,-31.50,CLOSED,0
669671.826,0,0,0,1.000,1.000,1.000,-90.00,180.00,-31.50,CLOSED,0
669671.830,0,0,0,1.000,1.000,1.000,-90.00,180.00,-31.50,CLOSED,0
669671.834,0,0,0,1.000,1.000,1.000,-90.00,180.00,-31.50,CLOSED,0
669671.838,0,0,0,1.000,1.000,1.000,-90.00,180.00,-31.50,CLOSED,0
669671.842,0,0,0,1.000,1.000,1.000,-90.00,180.00,-31.50,CLOSED,0
669671.846,0,0,0,1.000,1.000,1.000,-90.00,180.00,-31.50,CLOSED,0
669671.850,0,0,0,1.000,1.000,1.000,-90.00,180.00,-31.50,CLOSED,0
669671.854,0,0,0,1.000,1.000,1.000,-90.00,180.00,-31.50,CLOSED,0
669671.862,0,0,0,1.000,1.000,1.000,-90.00,180.00,-31.50,CLOSED,0
669671.866,0,0,0,1.000,1.000,1.000,-90.00,180.00,-31.50,CLOSED,0
669671.870,0,0,0,1.000,1.000,1.000,-90.00,180.00,-31.50,CLOSED,0
669671.874,0,0,0,1.000,1.000,1.000,-90.00,180.00,-31.50,CLOSED,0
669671.878,0,0,0,1.000,1.000,1.000,-90.00,180.00,-31.50,CLOSED,0
669671.882,0,0,0,1.000,1.000,1.000,-90.00,180.00,-31.50,CLOSED,0
669671.886,0,0,0,1.000,1.000,1.000,-90.00,180.00,-31.50,CLOSED,0
669671.894,0,0,0,1.000,1.000,1.000,-90.00,180.00,-31.50,CLOSED,0
669671.898,0,0,0,1.000,1.000,1.000,-90.00,180.00,-31.50,CLOSED,0
669671.903,0,0,0,1.000,1.000,1.000,-90.00,180.00,-31.50,CLOSED,0
669671.907,0,0,0,1.000,1.000,1.000,-90.00,180.00,-31.50,CLOSED,0
669671.910,0,0,0,1.000,1.000,1.000,-90.00,180.00,-31.50,CLOSED,0
669671.914,0,0,0,1.000,1.000,1.000,-90.00,180.00,-31.50,CLOSED,0
669671.918,0,0,0,1.000,1.000,1.000,-90.00,180.00,-31.50,CLOSED,0
669671.922,0,0,0,1.000,1.000,1.000,-90.00,180.00,-31.50,CLOSED,0
669671.926,0,0,0,1.000,1.000,1.000,-90.00,180.00,-31.50,CLOSED,0
669671.929,0,0,0,1.000,1.000,1.000,-90.00,180.00,-31.50,CLOSED,0
669671.933,0,0,0,1.000,1.000,1.000,-90.00,180.00,-31.50,CLOSED,0
669671.938,0,0,0,1.000,1.000,1.000,-90.00,180.00,-31.50,CLOSED,0
669671.942,0,0,0,1.000,1.000,1.000,-90.00,180.00,-31.50,CLOSED,0
669671.946,0,0,0,1.000,1.000,1.000,-90.00,180.00,-31.50,CLOSED,0
669671.949,0,0,0,1.000,1.000,1.000,-90.00,180.00,-31.50,CLOSED,0
669671.953,0,0,0,1.000,1.000,1.000,-90.00,180.00,-31.50,CLOSED,0
669671.958,0,0,0,1.000,1.000,1.000,-90.00,180.00,-31.50,CLOSED,0
669671.962,0,0,0,1.000,1.000,1.000,-90.00,180.00,-31.50,CLOSED,0
669671.967,0,0,0,1.000,1.000,1.000,-90.00,180.00,-31.50,CLOSED,0
669671.971,0,0,0,1.000,1.000,1.000,-90.00,180.00,-31.50,CLOSED,0
669671.974,0,0,0,1.000,1.000,1.000,-90.00,180.00,-31.50,CLOSED,0
669671.978,0,0,0,1.000,1.000,1.000,-90.00,180.00,-31.50,CLOSED,0
669671.982,0,0,0,1.000,1.000,1.000,-90.00,180.00,-31.50,CLOSED,0
669671.986,0,0,0,1.000,1.000,1.000,-90.00,180.00,-31.50,CLOSED,0
669671.990,0,0,0,1.000,1.000,1.000,-90.00,180.00,-31.50,CLOSED,0
669671.994,0,0,0,1.000,1.000,1.000,-90.00,180.00,-31.50,CLOSED,0
669671.998,0,0,0,1.000,1.000,1.000,-90.00,180.00,-31.50,CLOSED,0
669672.002,0,0,0,1.000,1.000,1.000,-90.00,180.00,-31.50,CLOSED,0
669672.006,0,0,0,1.000,1.000,1.000,-90.00,180.00,-31.50,CLOSED,0
669672.012,0,0,0,1.000,1.000,1.000,-90.00,180.00,-31.50,CLOSED,0
669672.017,0,0,0,1.000,1.000,1.000,-90.00,180.00,-31.50,CLOSED,0
669672.021,0,0,0,1.000,1.000,1.000,-90.00,180.00,-31.50,CLOSED,0
669672.026,0,0,0,1.000,1.000,1.000,-90.00,180.00,-31.50,CLOSED,0
669672.030,0,0,0,1.000,1.000,1.000,-90.00,180.00,-31.50,CLOSED,0
669672.034,0,0,0,1.000,1.000,1.000,-90.00,180.00,-31.50,CLOSED,0
669672.038,0,0,0,1.000,1.000,1.000,-90.00,180.00,-31.50,CLOSED,0
669672.043,0,0,0,1.000,1.000,1.000,-90.00,180.00,-31.50,CLOSED,0
669672.046,0,0,0,1.000,1.000,1.000,-90.00,180.00,-31.50,CLOSED,0
669672.050,0,0,0,1.000,1.000,1.000,-90.00,180.00,-31.50,CLOSED,0
669672.054,0,0,0,1.000,0.999,1.000,-90.00,180.00,-31.50,CLOSED,0
669672.059,0,0,0,1.000,0.998,1.000,-90.00,180.00,-31.50,CLOSED,0
669672.062,0,0,0,1.000,0.994,1.000,-90.00,180.00,-31.50,CLOSED,0
669672.066,0,0,0,1.000,0.973,1.000,-90.00,180.00,-31.50,CLOSED,0
669672.070,0,0,0,1.000,0.706,1.000,-90.00,180.00,-31.50,CLOSED,0
669672.078,0,0,0,1.000,0.835,1.000,-90.00,180.00,-31.50,CLOSED,0
669672.082,0,0,0,1.000,0.947,1.000,-90.00,180.00,-31.50,CLOSED,0
669672.087,0,0,0,1.000,0.962,1.000,-90.00,180.00,-31.50,CLOSED,0
669672.095,0,0,0,1.000,0.954,1.000,-90.00,180.00,-31.50,CLOSED,0
669672.103,0,0,0,1.000,0.886,1.000,-90.00,180.00,-31.50,CLOSED,0
669672.107,0,0,0,1.000,0.583,1.000,-90.00,180.00,-31.50,CLOSED,0
669672.111,0,0,0,1.000,0.745,1.000,-90.00,180.00,-31.50,CLOSED,0
669672.115,0,0,0,1.000,0.909,1.000,-90.00,180.00,-31.50,CLOSED,0
669672.120,0,0,0,1.000,0.961,0.999,-90.00,180.00,-31.50,CLOSED,0
669672.123,0,0,0,1.000,0.986,0.998,-90.00,180.00,-31.50,CLOSED,0
669672.127,0,0,0,1.000,0.994,0.997,-90.00,180.00,-31.50,CLOSED,0
669672.131,0,0,0,1.000,0.996,0.996,-90.00,180.00,-31.50,CLOSED,0
669672.137,0,0,0,1.000,0.997,0.995,-90.00,180.00,-31.50,CLOSED,0
669672.141,0,0,0,1.000,0.998,0.995,-90.00,180.00,-31.50,CLOSED,0
669672.145,0,0,0,1.000,0.998,0.994,-90.00,180.00,-31.50,CLOSED,0
669672.148,0,0,0,1.000,0.998,0.994,-90.00,180.00,-31.50,CLOSED,0
669672.153,0,0,0,1.000,0.999,0.992,-90.00,180.00,-31.50,CLOSED,0
669672.160,0,0,0,1.000,0.999,0.987,-90.00,180.00,-31.50,CLOSED,0
669672.166,0,0,0,1.000,0.999,0.979,-90.00,180.00,-31.50,CLOSED,0
669672.170,0,0,0,1.000,0.999,0.969,-90.00,180.00,-31.50,CLOSED,0
669672.174,0,0,0,1.000,1.000,0.968,-90.00,180.00,-31.50,CLOSED,0
669672.178,0,0,0,1.000,1.000,0.970,-90.00,180.00,-31.50,CLOSED,0
669672.182,0,0,0,1.000,1.000,0.976,-90.00,180.00,-31.50,CLOSED,0
669672.185,0,0,0,1.000,1.000,0.979,-90.00,180.00,-31.50,CLOSED,0
669672.189,0,0,0,1.000,0.999,0.980,-90.00,180.00,-31.50,CLOSED,0
669672.193,0,0,0,1.000,0.999,0.982,-90.00,180.00,-31.50,CLOSED,0
669672.198,0,0,0,1.000,0.998,0.983,-90.00,180.00,-31.50,CLOSED,0
669672.202,0,0,0,1.000,0.994,0.979,-90.00,180.00,-31.50,CLOSED,0
669672.206,0,0,0,1.000,0.980,0.973,-90.00,180.00,-31.50,CLOSED,0
669672.210,0,0,0,1.000,0.943,0.951,-90.00,180.00,-31.50,CLOSED,0
669672.213,0,0,0,1.000,0.888,0.924,-90.00,180.00,-31.50,CLOSED,0
669672.217,0,0,0,1.000,0.865,0.897,-90.00,180.00,-31.50,CLOSED,0
669672.221,0,0,0,1.000,0.869,0.887,-90.00,180.00,-31.50,CLOSED,0
669672.225,0,0,0,1.000,0.854,0.901,-90.00,180.00,-31.50,CLOSED,0
669672.230,0,0,0,1.000,0.831,0.929,-90.00,180.00,-31.50,CLOSED,0
669672.234,0,0,0,1.000,0.825,0.960,-90.00,180.00,-31.50,CLOSED,0
669672.238,0,0,0,1.000,0.859,0.977,-90.00,180.00,-31.50,CLOSED,0
669672.241,0,0,0,1.000,0.906,0.988,-90.00,180.00,-31.50,CLOSED,0
669672.249,0,0,0,1.000,0.942,0.992,-90.00,180.00,-31.50,CLOSED,0
669672.253,0,0,0,1.000,0.969,0.995,-90.00,180.00,-31.50,CLOSED,0
669672.259,0,0,0,1.000,0.981,0.997,-90.00,180.00,-31.50,CLOSED,0
669672.269,0,0,0,1.000,0.989,0.998,-90.00,180.00,-31.50,CLOSED,0
669672.275,0,0,0,1.000,0.992,0.998,-90.00,180.00,-31.50,CLOSED,0
669672.279,0,0,0,1.000,0.995,0.998,-90.00,180.00,-31.50,CLOSED,0
669672.282,0,0,0,1.000,0.996,0.998,-90.00,180.00,-31.50,CLOSED,0
669672.286,0,0,0,1.000,0.997,0.998,-90.00,180.00,-31.50,CLOSED,0
669672.290,0,0,0,1.000,0.996,0.997,-90.00,180.00,-31.50,CLOSED,0
669672.294,0,0,0,1.000,0.995,0.996,-90.00,180.00,-31.50,CLOSED,0
669672.298,0,0,0,1.000,0.989,0.994,-90.00,180.00,-31.50,CLOSED,0
669672.301,0,0,0,1.000,0.962,0.989,-90.00,180.00,-31.50,CLOSED,0
669672.309,0,0,0,1.000,0.843,0.982,-90.00,180.00,-31.50,CLOSED,0
669672.314,0,0,0,1.000,0.502,0.973,-90.00,180.00,-31.50,CLOSED,0
669672.318,0,0,0,1.000,0.804,0.970,-90.00,180.00,-31.50,CLOSED,0
669672.322,0,0,0,1.000,0.892,0.972,-90.00,180.00,-31.50,CLOSED,0
669672.327,0,0,0,1.000,0.892,0.979,-90.00,180.00,-31.50,CLOSED,0
669672.331,0,0,0,1.000,0.818,0.984,-90.00,180.00,-31.50,CLOSED,0
669672.337,0,0,0,1.000,0.657,0.989,-90.00,180.00,-31.50,CLOSED,0
669672.344,0,0,0,1.000,0.515,0.990,-90.00,180.00,-31.50,CLOSED,0
669672.351,0,0,0,1.000,0.650,0.990,-90.00,180.00,-31.50,CLOSED,0
669672.358,0,0,0,1.000,0.754,0.989,-90.00,180.00,-31.50,CLOSED,0
669672.366,0,0,0,1.000,0.770,0.988,-90.00,180.00,-31.50,CLOSED,0
669672.372,0,0,0,1.000,0.735,0.985,-90.00,180.00,-31.50,CLOSED,0
669672.381,0,0,0,1.000,0.698,0.983,-90.00,180.00,-31.50,CLOSED,0
669672.387,0,0,0,1.000,0.645,0.984,-90.00,180.00,-31.50,CLOSED,0
669672.395,0,0,0,1.000,0.608,0.985,-90.00,180.00,-31.50,CLOSED,0
669672.404,0,0,0,1.000,0.618,0.989,-90.00,180.00,-31.50,CLOSED,0
669672.412,0,0,0,1.000,0.718,0.990,-90.00,180.00,-31.50,CLOSED,0
669672.421,0,0,0,1.000,0.775,0.992,-90.00,180.00,-31.50,CLOSED,0
669672.430,0,0,0,1.000,0.844,0.990,-90.00,180.00,-31.50,CLOSED,0
669672.442,0,0,0,1.000,0.898,0.991,-90.00,180.00,-31.50,CLOSED,0
669672.453,0,0,0,1.000,0.915,0.989,-90.00,180.00,-31.50,CLOSED,0
669672.463,0,0,0,1.000,0.913,0.986,-90.00,180.00,-31.50,CLOSED,0
669672.472,0,0,0,1.000,0.908,0.983,-90.00,180.00,-31.50,CLOSED,0
669672.481,0,0,0,1.000,0.883,0.972,-90.00,180.00,-31.50,CLOSED,0
669672.491,0,0,0,1.000,0.875,0.955,-90.00,180.00,-31.50,CLOSED,0
669672.500,0,0,0,1.000,0.937,0.949,-90.00,180.00,-31.50,CLOSED,0
669672.505,0,0,0,1.000,0.978,0.950,-90.00,180.00,-31.50,CLOSED,0
669672.514,0,0,0,1.000,0.992,0.962,-90.00,180.00,-31.50,CLOSED,0
669672.522,0,0,0,1.000,0.996,0.970,-90.00,180.00,-31.50,CLOSED,0
669672.531,0,0,0,1.000,0.997,0.974,-90.00,180.00,-31.50,CLOSED,0
669672.539,0,0,0,1.000,0.998,0.978,-90.00,180.00,-31.50,CLOSED,0
669672.547,0,0,0,1.000,0.998,0.979,-90.00,180.00,-31.50,CLOSED,0
669672.556,0,0,0,1.000,0.997,0.977,-90.00,180.00,-31.50,CLOSED,0
669672.562,0,0,0,1.000,0.994,0.975,-90.00,180.00,-31.50,CLOSED,0
669672.566,0,0,0,1.000,0.987,0.974,-90.00,180.00,-31.50,CLOSED,0
669672.570,0,0,0,1.000,0.955,0.970,-90.00,180.00,-31.50,CLOSED,0
669672.574,0,0,0,1.000,0.852,0.962,-90.00,180.00,-31.50,CLOSED,0
669672.582,0,0,0,1.000,0.690,0.959,-90.00,180.00,-31.50,CLOSED,0
669672.586,0,0,0,1.000,0.531,0.957,-90.00,180.00,-31.50,CLOSED,0
669672.593,0,0,0,1.000,0.596,0.954,-90.00,180.00,-31.50,CLOSED,0
669672.598,0,0,0,1.000,0.509,0.960,-90.00,180.00,-31.50,CLOSED,0
669672.603,0,0,0,1.000,0.617,0.963,-90.00,180.00,-31.50,CLOSED,0
669672.606,0,0,0,1.000,0.725,0.964,-90.00,180.00,-31.50,CLOSED,0
669672.611,0,0,0,1.000,0.760,0.968,-90.00,180.00,-31.50,CLOSED,0
669672.614,0,0,0,1.000,0.755,0.971,-90.00,180.00,-31.50,CLOSED,0
669672.619,0,0,0,1.000,0.711,0.976,-90.00,180.00,-31.50,CLOSED,0
669672.623,0,0,0,1.000,0.637,0.980,-90.00,180.00,-31.50,CLOSED,0
669672.626,0,0,0,1.000,0.555,0.980,-90.00,180.00,-31.50,CLOSED,0
669672.630,0,0,0,1.000,0.519,0.983,-90.00,180.00,-31.50,CLOSED,0
669672.634,0,0,0,1.000,0.550,0.983,-90.00,180.00,-31.50,CLOSED,0
669672.638,0,0,0,1.000,0.720,0.981,-90.00,180.00,-31.50,CLOSED,0
669672.642,0,0,0,1.000,0.863,0.972,-90.00,180.00,-31.50,CLOSED,0
669672.646,0,0,0,1.000,0.956,0.953,-90.00,180.00,-31.50,CLOSED,0
669672.650,0,0,0,1.000,0.980,0.932,-90.00,180.00,-31.50,CLOSED,0
669672.665,0,0,0,1.000,0.987,0.903,-90.00,180.00,-31.50,CLOSED,0
669672.670,0,0,0,1.000,0.988,0.892,-90.00,180.00,-31.50,CLOSED,0
669672.674,0,0,0,1.000,0.986,0.895,-90.00,180.00,-31.50,CLOSED,0
669672.678,0,0,0,1.000,0.977,0.924,-90.00,180.00,-31.50,CLOSED,0
669672.681,0,0,0,1.000,0.950,0.968,-90.00,180.00,-31.50,CLOSED,0
669672.687,0,0,0,1.000,0.926,0.987,-90.00,180.00,-31.50,CLOSED,0
669672.691,0,0,0,1.000,0.941,0.996,-90.00,180.00,-31.50,CLOSED,0
669672.695,0,0,0,1.000,0.975,0.999,-90.00,180.00,-31.50,CLOSED,0
669672.699,0,0,0,1.000,0.987,0.999,-90.00,180.00,-31.50,CLOSED,0
669672.703,0,0,0,1.000,0.995,0.999,-90.00,180.00,-31.50,CLOSED,0
669672.712,0,0,0,1.000,0.999,0.999,-90.00,180.00,-31.50,CLOSED,0
669672.720,0,0,0,1.000,1.000,0.999,-90.00,180.00,-31.50,CLOSED,0
669672.724,0,0,0,1.000,1.000,0.999,-90.00,180.00,-31.50,CLOSED,0
669672.728,0,0,0,1.000,1.000,0.999,-90.00,180.00,-31.50,CLOSED,0
669672.733,0,0,0,1.000,1.000,1.000,-90.00,180.00,-31.50,CLOSED,0
669672.738,0,0,0,1.000,1.000,1.000,-90.00,180.00,-31.50,CLOSED,0
669672.742,0,0,0,1.000,1.000,1.000,-90.00,180.00,-31.50,CLOSED,0
669672.745,0,0,0,1.000,1.000,1.000,-90.00,180.00,-31.50,CLOSED,0
669672.749,0,0,0,1.000,0.998,1.000,-90.00,180.00,-31.50,CLOSED,0
669672.753,0,0,0,0.999,0.998,1.000,-90.00,180.00,-31.50,CLOSED,0
669672.756,0,0,0,0.999,0.998,1.000,-90.00,180.00,-31.50,CLOSED,0
669672.763,0,0,0,0.999,0.999,1.000,-90.00,180.00,-31.50,CLOSED,0
669672.770,0,0,0,1.000,1.000,1.000,-90.00,180.00,-31.50,CLOSED,0
669672.779,0,0,0,1.000,1.000,1.000,-90.00,180.00,-31.50,CLOSED,0
669672.788,0,0,0,1.000,1.000,1.000,-90.00,180.00,-31.50,CLOSED,0
669672.796,0,0,0,1.000,1.000,1.000,-90.00,180.00,-31.50,CLOSED,0
669672.804,0,0,0,1.000,1.000,1.000,-90.00,180.00,-31.50,CLOSED,0
669672.812,0,0,0,1.000,1.000,1.000,-90.00,180.00,-31.50,CLOSED,0
669672.820,0,0,0,1.000,1.000,1.000,-90.00,180.00,-31.50,CLOSED,0
669672.828,0,0,0,1.000,1.000,1.000,-90.00,180.00,-31.50,CLOSED,0
669672.832,0,0,0,1.000,1.000,1.000,-90.00,180.00,-31.50,CLOSED,0
669672.837,0,0,0,1.000,1.000,1.000,-90.00,180.00,-31.50,CLOSED,0
669672.845,0,0,0,1.000,1.000,1.000,-90.00,180.00,-31.50,CLOSED,0
669672.849,0,0,0,1.000,1.000,1.000,-90.00,180.00,-31.50,CLOSED,0
669672.854,0,0,0,1.000,1.000,1.000,-90.00,180.00,-31.50,CLOSED,0
669672.857,0,0,0,1.000,1.000,1.000,-90.00,180.00,-31.50,CLOSED,0
669672.861,0,0,0,1.000,1.000,1.000,-90.00,180.00,-31.50,CLOSED,0
669672.865,0,0,0,1.000,1.000,1.000,-90.00,180.00,-31.50,CLOSED,0
669672.868,0,0,0,1.000,1.000,1.000,-90.00,180.00,-31.50,CLOSED,0
669672.877,0,0,0,1.000,1.000,1.000,-90.00,180.00,-31.50,CLOSED,0
669672.882,0,0,0,1.000,1.000,1.000,-90.00,180.00,-31.50,CLOSED,0
669672.887,0,0,0,1.000,1.000,1.000,-90.00,180.00,-31.50,CLOSED,0
669672.891,0,0,0,1.000,1.000,1.000,-90.00,180.00,-31.50,CLOSED,0
669672.894,0,0,0,1.000,1.000,1.000,-90.00,180.00,-31.50,CLOSED,0
669672.898,0,0,0,1.000,1.000,1.000,-90.00,180.00,-31.50,CLOSED,0
669672.902,0,0,0,1.000,1.000,1.000,-90.00,180.00,-31.50,CLOSED,0
669672.907,0,0,0,1.000,1.000,1.000,-90.00,180.00,-31.50,CLOSED,0
669672.911,0,0,0,1.000,1.000,1.000,-90.00,180.00,-31.50,CLOSED,0
669672.917,0,0,0,1.000,1.000,1.000,-90.00,180.00,-31.50,CLOSED,0
669672.922,0,0,0,1.000,1.000,1.000,-90.00,180.00,-31.50,CLOSED,0
669672.930,0,0,0,1.000,1.000,1.000,-90.00,180.00,-31.50,CLOSED,0
669672.934,0,0,0,1.000,1.000,1.000,-90.00,180.00,-31.50,CLOSED,0
669672.938,0,0,0,1.000,1.000,1.000,-90.00,180.00,-31.50,CLOSED,0
669672.942,0,0,0,1.000,1.000,1.000,-90.00,180.00,-31.50,CLOSED,0
669672.946,0,0,0,1.000,1.000,1.000,-90.00,180.00,-31.50,CLOSED,0
669672.950,0,0,0,1.000,1.000,1.000,-90.00,180.00,-31.50,CLOSED,0
669672.954,0,0,0,1.000,1.000,1.000,-90.00,180.00,-31.50,CLOSED,0
669672.958,0,0,0,1.000,1.000,1.000,-90.00,180.00,-31.50,CLOSED,0
669672.962,0,0,0,1.000,1.000,1.000,-90.00,180.00,-31.50,CLOSED,0
669672.969,0,0,0,1.000,1.000,1.000,-90.00,180.00,-31.50,CLOSED,0
669672.973,0,0,0,1.000,1.000,1.000,-90.00,180.00,-31.50,CLOSED,0
669672.977,0,0,0,1.000,1.000,1.000,-90.00,180.00,-31.50,CLOSED,0
669672.981,0,0,0,1.000,1.000,1.000,-90.00,180.00,-31.50,CLOSED,0
669672.986,0,0,0,1.000,1.000,1.000,-90.00,180.00,-31.50,CLOSED,0
669672.989,0,0,0,1.000,1.000,1.000,-90.00,180.00,-31.50,CLOSED,0
669672.993,0,0,0,1.000,1.000,1.000,-90.00,180.00,-31.50,CLOSED,0
669672.997,0,0,0,1.000,1.000,1.000,-90.00,180.00,-31.50,CLOSED,0
669673.001,0,0,0,1.000,1.000,1.000,-90.00,180.00,-31.50,CLOSED,0
669673.005,0,0,0,1.000,1.000,1.000,-90.00,180.00,-31.50,CLOSED,0
669673.009,0,0,0,1.000,1.000,1.000,-90.00,180.00,-31.50,CLOSED,0
669673.013,0,0,0,1.000,1.000,1.000,-90.00,180.00,-31.50,CLOSED,0
669673.021,0,0,0,1.000,1.000,1.000,-90.00,180.00,-31.50,CLOSED,0
669673.026,0,0,0,1.000,1.000,1.000,-90.00,180.00,-31.50,CLOSED,0
669673.030,0,0,0,1.000,1.000,1.000,-90.00,180.00,-31.50,CLOSED,0
669673.034,0,0,0,1.000,1.000,1.000,-90.00,180.00,-31.50,CLOSED,0
669673.039,0,0,0,1.000,1.000,1.000,-90.00,180.00,-31.50,CLOSED,0
669673.043,0,0,0,1.000,1.000,1.000,-90.00,180.00,-31.50,CLOSED,0
669673.046,0,0,0,1.000,1.000,1.000,-90.00,180.00,-31.50,CLOSED,0
669673.051,0,0,0,1.000,1.000,1.000,-90.00,180.00,-31.50,CLOSED,0
669673.057,0,0,0,1.000,1.000,1.000,-90.00,180.00,-31.50,CLOSED,0
669673.063,0,0,0,1.000,1.000,1.000,-90.00,180.00,-31.50,CLOSED,0
669673.066,0,0,0,1.000,1.000,1.000,-90.00,180.00,-31.50,CLOSED,0
669673.070,0,0,0,1.000,1.000,1.000,-90.00,180.00,-31.50,CLOSED,0
669673.074,0,0,0,1.000,1.000,1.000,-90.00,180.00,-31.50,CLOSED,0
669673.078,0,0,0,1.000,1.000,1.000,-90.00,180.00,-31.50,CLOSED,0
669673.082,0,0,0,1.000,1.000,1.000,-90.00,180.00,-31.50,CLOSED,0
669673.086,0,0,0,1.000,1.000,1.000,-90.00,180.00,-31.50,CLOSED,0
669673.089,0,0,0,1.000,1.000,1.000,-90.00,180.00,-31.50,CLOSED,0
669673.094,0,0,0,1.000,1.000,1.000,-90.00,180.00,-31.50,CLOSED,0
669673.098,0,0,0,1.000,1.000,1.000,-90.00,180.00,-31.50,CLOSED,0
669673.102,0,0,0,1.000,1.000,1.000,-90.00,180.00,-31.50,CLOSED,0
669673.106,0,0,0,1.000,1.000,1.000,-90.00,180.00,-31.50,CLOSED,0
669673.116,0,0,0,1.000,1.000,1.000,-90.00,180.00,-31.50,CLOSED,0
669673.120,0,0,0,1.000,1.000,1.000,-90.00,180.00,-31.50,CLOSED,0
669673.124,0,0,0,1.000,1.000,1.000,-90.00,180.00,-31.50,CLOSED,0
669673.127,0,0,0,1.000,1.000,1.000,-90.00,180.00,-31.50,CLOSED,0
669673.132,0,0,0,1.000,1.000,1.000,-90.00,180.00,-31.50,CLOSED,0
669673.135,0,0,0,1.000,1.000,1.000,-90.00,180.00,-31.50,CLOSED,0
669673.139,0,0,0,1.000,1.000,1.000,-90.00,180.00,-31.50,CLOSED,0
669673.143,0,0,0,1.000,1.000,1.000,-90.00,180.00,-31.50,CLOSED,0
669673.147,0,0,0,1.000,1.000,1.000,-90.00,180.00,-31.50,CLOSED,0
669673.151,0,0,0,1.000,1.000,1.000,-90.00,180.00,-31.50,CLOSED,0
669673.155,0,0,0,1.000,1.000,1.000,-90.00,180.00,-31.50,CLOSED,0
669673.160,0,0,0,1.000,1.000,1.000,-90.00,180.00,-31.50,CLOSED,0
669673.164,0,0,0,1.000,1.000,1.000,-90.00,180.00,-31.50,CLOSED,0
669673.168,0,0,0,1.000,1.000,1.000,-90.00,180.00,-31.50,CLOSED,0
669673.172,0,0,0,1.000,1.000,1.000,-90.00,180.00,-31.50,CLOSED,0
669673.176,0,0,0,1.000,1.000,1.000,-90.00,180.00,-31.50,CLOSED,0
669673.179,0,0,0,1.000,1.000,1.000,-90.00,180.00,-31.50,CLOSED,0
669673.183,0,0,0,1.000,1.000,1.000,-90.00,180.00,-31.50,CLOSED,0
669673.189,0,0,0,1.000,1.000,1.000,-90.00,180.00,-31.50,CLOSED,0
669673.193,0,0,0,1.000,1.000,1.000,-90.00,180.00,-31.50,CLOSED,0
669673.197,0,0,0,1.000,1.000,1.000,-90.00,180.00,-31.50,CLOSED,0
669673.201,0,0,0,1.000,1.000,1.000,-90.00,180.00,-31.50,CLOSED,0
669673.205,0,0,0,1.000,1.000,1.000,-90.00,180.00,-31.50,CLOSED,0
669673.209,0,0,0,1.000,1.000,1.000,-90.00,180.00,-31.50,CLOSED,0
669673.213,0,0,0,1.000,1.000,1.000,-90.00,180.00,-31.50,CLOSED,0
669673.217,0,0,0,1.000,1.000,1.000,-90.00,180.00,-31.50,CLOSED,0
669673.221,0,0,0,1.000,1.000,1.000,-90.00,180.00,-31.50,CLOSED,0
669673.225,0,0,0,1.000,1.000,1.000,-90.00,180.00,-31.50,CLOSED,0
669673.228,0,0,0,1.000,1.000,1.000,-90.00,180.00,-31.50,CLOSED,0
669673.232,0,0,0,1.000,1.000,1.000,-90.00,180.00,-31.50,CLOSED,0
669673.237,0,0,0,1.000,1.000,1.000,-90.00,180.00,-31.50,CLOSED,0
669673.240,0,0,0,1.000,1.000,1.000,-90.00,180.00,-31.50,CLOSED,0
669673.244,0,0,0,1.000,1.000,1.000,-90.00,180.00,-31.50,CLOSED,0
669673.248,0,0,0,1.000,1.000,1.000,-90.00,180.00,-31.50,CLOSED,0
669673.252,0,0,0,1.000,1.000,1.000,-90.00,180.00,-31.50,CLOSED,0
669673.256,0,0,0,1.000,1.000,1.000,-90.00,180.00,-31.50,CLOSED,0
669673.259,0,0,0,1.000,1.000,1.000,-90.00,180.00,-31.50,CLOSED,0
669673.263,0,0,0,1.000,1.000,1.000,-90.00,180.00,-31.50,CLOSED,0
669673.267,0,0,0,1.000,1.000,1.000,-90.00,180.00,-31.50,CLOSED,0
669673.271,0,0,0,1.000,1.000,1.000,-90.00,180.00,-31.50,CLOSED,0
669673.274,0,0,0,1.000,1.000,1.000,-90.00,180.00,-31.50,CLOSED,0
669673.278,0,0,0,1.000,1.000,1.000,-90.00,180.00,-31.50,CLOSED,0
669673.282,0,0,0,1.000,1.000,1.000,-90.00,180.00,-31.50,CLOSED,0
669673.286,0,0,0,1.000,1.000,1.000,-90.00,180.00,-31.50,CLOSED,0
669673.289,0,0,0,1.000,1.000,1.000,-90.00,180.00,-31.50,CLOSED,0
669673.294,0,0,0,1.000,1.000,1.000,-90.00,180.00,-31.50,CLOSED,0
669673.298,0,0,0,1.000,1.000,1.000,-90.00,180.00,-31.50,CLOSED,0
669673.301,0,0,0,1.000,1.000,1.000,-90.00,180.00,-31.50,CLOSED,0
669673.305,0,0,0,1.000,1.000,1.000,-90.00,180.00,-31.50,CLOSED,0
669673.313,0,0,0,1.000,1.000,1.000,-90.00,180.00,-31.50,CLOSED,0
669673.317,0,0,0,1.000,1.000,1.000,-90.00,180.00,-31.50,CLOSED,0
669673.323,0,0,0,1.000,1.000,1.000,-90.00,180.00,-31.50,CLOSED,0
669673.327,0,0,0,1.000,1.000,1.000,-90.00,180.00,-31.50,CLOSED,0
669673.330,0,0,0,1.000,1.000,1.000,-90.00,180.00,-31.50,CLOSED,0
669673.334,0,0,0,1.000,1.000,1.000,-90.00,180.00,-31.50,CLOSED,0
669673.337,0,0,0,1.000,1.000,1.000,-90.00,180.00,-31.50,CLOSED,0
669673.342,0,0,0,1.000,1.000,1.000,-90.00,180.00,-31.50,CLOSED,0
669673.347,0,0,0,1.000,1.000,1.000,-90.00,180.00,-31.50,CLOSED,0
669673.352,0,0,0,1.000,1.000,1.000,-90.00,180.00,-31.50,CLOSED,0
669673.356,0,0,0,1.000,1.000,1.000,-90.00,180.00,-31.50,CLOSED,0
669673.360,0,0,0,1.000,1.000,1.000,-90.00,180.00,-31.50,CLOSED,0
669673.365,0,0,0,1.000,1.000,1.000,-90.00,180.00,-31.50,CLOSED,0
669673.369,0,0,0,1.000,1.000,1.000,-90.00,180.00,-31.50,CLOSED,0
669673.373,0,0,0,1.000,1.000,1.000,-90.00,180.00,-31.50,CLOSED,0
669673.378,0,0,0,1.000,1.000,1.000,-90.00,180.00,-31.50,CLOSED,0
669673.382,0,0,0,1.000,1.000,1.000,-90.00,180.00,-31.50,CLOSED,0
669673.386,0,0,0,1.000,1.000,1.000,-90.00,180.00,-31.50,CLOSED,0
669673.394,0,0,0,1.000,1.000,1.000,-90.00,180.00,-31.50,CLOSED,0
669673.397,0,0,0,1.000,1.000,1.000,-90.00,180.00,-31.50,CLOSED,0
669673.401,0,0,0,1.000,1.000,1.000,-90.00,180.00,-31.50,CLOSED,0
669673.405,0,0,0,0.999,1.000,1.000,-90.00,180.00,-31.50,CLOSED,0
669673.412,0,0,0,0.992,1.000,1.000,-90.00,180.00,-31.50,CLOSED,0
669673.420,0,0,0,0.991,1.000,1.000,-90.00,180.00,-31.50,CLOSED,0
669673.427,0,0,0,0.997,1.000,1.000,-90.00,180.00,-31.50,CLOSED,0
669673.431,0,0,0,0.992,1.000,1.000,-90.00,180.00,-31.50,CLOSED,0
669673.435,0,0,0,0.989,1.000,1.000,-90.00,180.00,-31.50,CLOSED,0
669673.439,0,0,0,0.995,1.000,1.000,-90.00,180.00,-31.50,CLOSED,0
669673.447,0,0,0,0.987,1.000,1.000,-90.00,180.00,-31.50,CLOSED,0
669673.451,0,0,0,0.986,1.000,1.000,-90.00,180.00,-31.50,CLOSED,0
669673.455,0,0,0,0.989,1.000,1.000,-90.00,180.00,-31.50,CLOSED,0
669673.459,0,0,0,0.998,0.999,1.000,-90.00,180.00,-31.50,CLOSED,0
669673.462,0,0,0,0.999,0.950,1.000,-90.00,180.00,-31.50,CLOSED,0
669673.466,0,0,0,0.999,0.765,1.000,-90.00,180.00,-31.50,CLOSED,0
669673.470,0,0,0,0.995,0.989,1.000,-90.00,180.00,-31.50,CLOSED,0
669673.473,0,0,0,0.985,0.999,1.000,-90.00,180.00,-31.50,CLOSED,0
669673.477,0,0,0,0.989,1.000,1.000,-90.00,180.00,-31.50,CLOSED,0
669673.481,0,0,0,0.994,1.000,1.000,-90.00,180.00,-31.50,CLOSED,0
669673.486,0,0,0,0.997,1.000,1.000,-90.00,180.00,-31.50,CLOSED,0
669673.490,0,0,0,0.999,1.000,1.000,-90.00,180.00,-31.50,CLOSED,0
669673.494,0,0,0,0.999,1.000,1.000,-90.00,180.00,-31.50,CLOSED,0
669673.498,0,0,0,0.996,1.000,1.000,-90.00,180.00,-31.50,CLOSED,0
669673.503,0,0,0,0.999,1.000,1.000,-90.00,180.00,-31.50,CLOSED,0
669673.507,0,0,0,1.000,1.000,1.000,-90.00,180.00,-31.50,CLOSED,0
669673.512,0,0,0,1.000,1.000,1.000,-90.00,180.00,-31.50,CLOSED,0
669673.516,0,0,0,1.000,1.000,0.999,-90.00,180.00,-31.50,CLOSED,0
669673.521,0,0,0,1.000,1.000,0.998,-90.00,180.00,-31.50,CLOSED,0
669673.527,0,0,0,1.000,1.000,0.996,-90.00,180.00,-31.50,CLOSED,0
669673.531,0,0,0,1.000,1.000,0.994,-90.00,180.00,-31.50,CLOSED,0
669673.536,0,0,0,1.000,1.000,0.993,-90.00,180.00,-31.50,CLOSED,0
669673.540,0,0,0,1.000,1.000,0.992,-90.00,180.00,-31.50,CLOSED,0
669673.543,0,0,0,1.000,1.000,0.990,-90.00,180.00,-31.50,CLOSED,0
669673.547,0,0,0,1.000,1.000,0.988,-90.00,180.00,-31.50,CLOSED,0
669673.551,0,0,0,1.000,1.000,0.987,-90.00,180.00,-31.50,CLOSED,0
669673.555,0,0,0,1.000,1.000,0.986,-90.00,180.00,-31.50,CLOSED,0
669673.559,0,0,0,1.000,1.000,0.986,-90.00,180.00,-31.50,CLOSED,0
669673.563,0,0,0,1.000,1.000,0.989,-90.00,180.00,-31.50,CLOSED,0
669673.567,0,0,0,1.000,1.000,0.991,-90.00,180.00,-31.50,CLOSED,0
669673.572,0,0,0,1.000,1.000,0.993,-90.00,180.00,-31.50,CLOSED,0
669673.576,0,0,0,1.000,0.999,0.994,-90.00,180.00,-31.50,CLOSED,0
669673.582,0,0,0,1.000,0.999,0.994,-90.00,180.00,-31.50,CLOSED,0
669673.586,0,0,0,1.000,0.999,0.994,-90.00,180.00,-31.50,CLOSED,0
669673.590,0,0,0,1.000,0.999,0.994,-90.00,180.00,-31.50,CLOSED,0
669673.594,0,0,0,1.000,0.999,0.993,-90.00,180.00,-31.50,CLOSED,0
669673.597,0,0,0,1.000,0.999,0.993,-90.00,180.00,-31.50,CLOSED,0
669673.601,0,0,0,1.000,0.999,0.991,-90.00,180.00,-31.50,CLOSED,0
669673.605,0,0,0,1.000,0.999,0.989,-90.00,180.00,-31.50,CLOSED,0
669673.609,0,0,0,1.000,1.000,0.989,-90.00,180.00,-31.50,CLOSED,0
669673.613,0,0,0,1.000,1.000,0.988,-90.00,180.00,-31.50,CLOSED,0
669673.617,0,0,0,1.000,1.000,0.991,-90.00,180.00,-31.50,CLOSED,0
669673.621,0,0,0,1.000,1.000,0.995,-90.00,180.00,-31.50,CLOSED,0
669673.625,0,0,0,1.000,1.000,0.997,-90.00,180.00,-31.50,CLOSED,0
669673.629,0,0,0,1.000,1.000,0.998,-90.00,180.00,-31.50,CLOSED,0
669673.633,0,0,0,1.000,1.000,0.999,-90.00,180.00,-31.50,CLOSED,0
669673.636,0,0,0,1.000,1.000,0.999,-90.00,180.00,-31.50,CLOSED,0
669673.641,0,0,0,1.000,1.000,0.999,-90.00,180.00,-31.50,CLOSED,0
669673.644,0,0,0,1.000,1.000,0.999,-90.00,180.00,-31.50,CLOSED,0
669673.648,0,0,0,1.000,1.000,0.999,-90.00,180.00,-31.50,CLOSED,0
669673.652,0,0,0,1.000,1.000,0.998,-90.00,180.00,-31.50,CLOSED,0
669673.656,0,0,0,1.000,1.000,0.997,-90.00,180.00,-31.50,CLOSED,0
669673.660,0,0,0,1.000,1.000,0.994,-90.00,180.00,-31.50,CLOSED,0
669673.663,0,0,0,1.000,0.999,0.988,-90.00,180.00,-31.50,CLOSED,0
669673.667,0,0,0,1.000,0.999,0.982,-90.00,180.00,-31.50,CLOSED,0
669673.673,0,0,0,1.000,0.998,0.985,-90.00,180.00,-31.50,CLOSED,0
669673.677,0,0,0,1.000,0.997,0.991,-90.00,180.00,-31.50,CLOSED,0
669673.681,0,0,0,1.000,0.997,0.995,-90.00,180.00,-31.50,CLOSED,0
669673.686,0,0,0,1.000,0.996,0.997,-90.00,180.00,-31.50,CLOSED,0
669673.689,0,0,0,1.000,0.995,0.998,-90.00,180.00,-31.50,CLOSED,0
669673.693,0,0,0,1.000,0.996,0.999,-90.00,180.00,-31.50,CLOSED,0
669673.702,0,0,0,1.000,0.997,0.998,-90.00,180.00,-31.50,CLOSED,0
669673.709,0,0,0,1.000,0.997,0.998,-90.00,180.00,-31.50,CLOSED,0
669673.713,0,0,0,1.000,0.998,0.997,-90.00,180.00,-31.50,CLOSED,0
669673.717,0,0,0,1.000,0.998,0.994,-90.00,180.00,-31.50,CLOSED,0
669673.722,0,0,0,1.000,0.999,0.988,-90.00,180.00,-31.50,CLOSED,0
669673.725,0,0,0,1.000,0.999,0.979,-90.00,180.00,-31.50,CLOSED,0
669673.729,0,0,0,1.000,0.999,0.976,-90.00,180.00,-31.50,CLOSED,0
669673.733,0,0,0,1.000,0.999,0.981,-90.00,180.00,-31.50,CLOSED,0
669673.737,0,0,0,1.000,0.999,0.984,-90.00,180.00,-31.50,CLOSED,0
669673.741,0,0,0,1.000,0.998,0.988,-90.00,180.00,-31.50,CLOSED,0
669673.745,0,0,0,1.000,0.998,0.993,-90.00,180.00,-31.50,CLOSED,0
669673.748,0,0,0,1.000,0.998,0.995,-90.00,180.00,-31.50,CLOSED,0
669673.752,0,0,0,1.000,0.998,0.997,-90.00,180.00,-31.50,CLOSED,0
669673.756,0,0,0,1.000,0.999,0.998,-90.00,180.00,-31.50,CLOSED,0
669673.759,0,0,0,1.000,0.999,0.998,-90.00,180.00,-31.50,CLOSED,0
669673.764,0,0,0,1.000,0.999,0.999,-90.00,180.00,-31.50,CLOSED,0
669673.768,0,0,0,1.000,0.999,0.999,-90.00,180.00,-31.50,CLOSED,0
669673.772,0,0,0,1.000,1.000,0.999,-90.00,180.00,-31.50,CLOSED,0
669673.776,0,0,0,1.000,1.000,0.998,-90.00,180.00,-31.50,CLOSED,0
669673.779,0,0,0,1.000,1.000,0.998,-90.00,180.00,-31.50,CLOSED,0
669673.783,0,0,0,1.000,1.000,0.998,-90.00,180.00,-31.50,CLOSED,0
669673.787,0,0,0,1.000,1.000,0.999,-90.00,180.00,-31.50,CLOSED,0
669673.791,0,0,0,1.000,1.000,0.999,-90.00,180.00,-31.50,CLOSED,0
669673.795,0,0,0,1.000,1.000,1.000,-90.00,180.00,-31.50,CLOSED,0
669673.806,0,0,0,1.000,1.000,1.000,-90.00,180.00,-31.50,CLOSED,0
669673.810,0,0,0,1.000,1.000,1.000,-90.00,180.00,-31.50,CLOSED,0
669673.815,0,0,0,1.000,1.000,1.000,-90.00,180.00,-31.50,CLOSED,0
669673.820,0,0,0,1.000,1.000,1.000,-90.00,180.00,-31.50,CLOSED,0
669673.825,0,0,0,1.000,1.000,1.000,-90.00,180.00,-31.50,CLOSED,0
669673.831,0,0,0,1.000,1.000,1.000,-90.00,180.00,-31.50,CLOSED,0
669673.834,0,0,0,1.000,1.000,1.000,-90.00,180.00,-31.50,CLOSED,0
669673.838,0,0,0,1.000,1.000,1.000,-90.00,180.00,-31.50,CLOSED,0
669673.842,0,0,0,1.000,1.000,1.000,-90.00,180.00,-31.50,CLOSED,0
669673.846,0,0,0,1.000,1.000,0.999,-90.00,180.00,-31.50,CLOSED,0
669673.850,0,0,0,1.000,1.000,0.999,-90.00,180.00,-31.50,CLOSED,0
669673.853,0,0,0,1.000,1.000,0.999,-90.00,180.00,-31.50,CLOSED,0
669673.857,0,0,0,1.000,1.000,0.999,-90.00,180.00,-31.50,CLOSED,0
669673.861,0,0,0,1.000,1.000,0.999,-90.00,180.00,-31.50,CLOSED,0
669673.865,0,0,0,1.000,1.000,0.999,-90.00,180.00,-31.50,CLOSED,0
669673.870,0,0,0,1.000,1.000,0.999,-90.00,180.00,-31.50,CLOSED,0
669673.876,0,0,0,1.000,1.000,0.999,-90.00,180.00,-31.50,CLOSED,0
669673.880,0,0,0,1.000,1.000,0.999,-90.00,180.00,-31.50,CLOSED,0
669673.884,0,0,0,1.000,1.000,0.999,-90.00,180.00,-31.50,CLOSED,0
669673.888,0,0,0,1.000,1.000,0.998,-90.00,180.00,-31.50,CLOSED,0
669673.893,0,0,0,1.000,1.000,0.996,-90.00,180.00,-31.50,CLOSED,0
669673.896,0,0,0,1.000,0.999,0.992,-90.00,180.00,-31.50,CLOSED,0
669673.900,0,0,0,1.000,0.998,0.985,-90.00,180.00,-31.50,CLOSED,0
669673.905,0,0,0,1.000,0.988,0.978,-90.00,180.00,-31.50,CLOSED,0
669673.909,0,0,0,1.000,0.924,0.974,-90.00,180.00,-31.50,CLOSED,0
669673.915,0,0,0,1.000,0.623,0.976,-90.00,180.00,-31.50,CLOSED,0
669673.921,0,0,0,1.000,0.959,0.989,-90.00,180.00,-31.50,CLOSED,0
669673.928,0,0,0,1.000,0.995,0.995,-90.00,180.00,-31.50,CLOSED,0
669673.936,0,0,0,1.000,0.999,0.996,-90.00,180.00,-31.50,CLOSED,0
669673.943,0,0,0,1.000,1.000,0.998,-90.00,180.00,-31.50,CLOSED,0
669673.951,0,0,0,1.000,1.000,0.998,-90.00,180.00,-31.50,CLOSED,0
669673.960,0,0,0,1.000,1.000,0.999,-90.00,180.00,-31.50,CLOSED,0
669673.967,0,0,0,1.000,1.000,0.999,-90.00,180.00,-31.50,CLOSED,0
669673.973,0,0,0,1.000,1.000,0.999,-90.00,180.00,-31.50,CLOSED,0
669673.977,0,0,0,1.000,0.999,1.000,-90.00,180.00,-31.50,CLOSED,0
669673.985,0,0,0,1.000,0.999,1.000,-90.00,180.00,-31.50,CLOSED,0
669673.993,0,0,0,1.000,0.998,1.000,-90.00,180.00,-31.50,CLOSED,0
669673.997,0,0,0,1.000,0.996,1.000,-90.00,180.00,-31.50,CLOSED,0
669674.001,0,0,0,0.999,0.994,1.000,-90.00,180.00,-31.50,CLOSED,0
669674.006,0,0,0,0.999,0.986,1.000,-90.00,180.00,-31.50,CLOSED,0
669674.014,0,0,0,0.999,0.981,1.000,-90.00,180.00,-31.50,CLOSED,0
669674.022,0,0,0,0.999,0.985,1.000,-90.00,180.00,-31.50,CLOSED,0
669674.029,0,0,0,0.999,0.996,1.000,-90.00,180.00,-31.50,CLOSED,0
669674.037,0,0,0,0.997,0.996,1.000,-90.00,180.00,-31.50,CLOSED,0
669674.045,0,0,0,0.997,1.000,1.000,-90.00,180.00,-31.50,CLOSED,0
669674.051,0,0,0,0.994,1.000,1.000,-90.00,180.00,-31.50,CLOSED,0
669674.057,0,0,0,0.998,1.000,1.000,-90.00,180.00,-31.50,CLOSED,0
669674.065,0,0,0,0.999,1.000,1.000,-90.00,180.00,-31.50,CLOSED,0
669674.074,0,0,0,1.000,1.000,1.000,-90.00,180.00,-31.50,CLOSED,0
669674.082,0,0,0,1.000,1.000,1.000,-90.00,180.00,-31.50,CLOSED,0
669674.090,0,0,0,1.000,1.000,1.000,-90.00,180.00,-31.50,CLOSED,0
669674.098,0,0,0,1.000,1.000,1.000,-90.00,180.00,-31.50,CLOSED,0
669674.105,0,0,0,0.999,1.000,1.000,-90.00,180.00,-31.50,CLOSED,0
669674.113,0,0,0,1.000,1.000,1.000,-90.00,180.00,-31.50,CLOSED,0
669674.119,0,0,0,1.000,1.000,1.000,-90.00,180.00,-31.50,CLOSED,0
669674.123,0,0,0,1.000,1.000,1.000,-90.00,180.00,-31.50,CLOSED,0
669674.127,0,0,0,1.000,1.000,1.000,-90.00,180.00,-31.50,CLOSED,0
669674.131,0,0,0,1.000,1.000,1.000,-90.00,180.00,-31.50,CLOSED,0
669674.135,0,0,0,1.000,1.000,1.000,-90.00,180.00,-31.50,CLOSED,0
669674.139,0,0,0,1.000,1.000,1.000,-90.00,180.00,-31.50,CLOSED,0
669674.144,0,0,0,1.000,1.000,1.000,-90.00,180.00,-31.50,CLOSED,0
669674.147,0,0,0,1.000,1.000,1.000,-90.00,180.00,-31.50,CLOSED,0
669674.151,0,0,0,1.000,1.000,1.000,-90.00,180.00,-31.50,CLOSED,0
669674.155,0,0,0,1.000,1.000,1.000,-90.00,180.00,-31.50,CLOSED,0
669674.163,0,0,0,1.000,1.000,1.000,-90.00,180.00,-31.50,CLOSED,0
669674.167,0,0,0,1.000,1.000,1.000,-90.00,180.00,-31.50,CLOSED,0
669674.174,0,0,0,1.000,1.000,1.000,-90.00,180.00,-31.50,CLOSED,0
669674.178,0,0,0,1.000,1.000,1.000,-90.00,180.00,-31.50,CLOSED,0
669674.186,0,0,0,1.000,1.000,1.000,-90.00,180.00,-31.50,CLOSED,0
669674.191,0,0,0,1.000,1.000,1.000,-90.00,180.00,-31.50,CLOSED,0
669674.195,0,0,0,1.000,1.000,1.000,-90.00,180.00,-31.50,CLOSED,0
669674.199,0,0,0,1.000,1.000,1.000,-90.00,180.00,-31.50,CLOSED,0
669674.206,0,0,0,1.000,1.000,1.000,-90.00,180.00,-31.50,CLOSED,0
669674.209,0,0,0,1.000,1.000,1.000,-90.00,180.00,-31.50,CLOSED,0
669674.213,0,0,0,1.000,1.000,1.000,-90.00,180.00,-31.50,CLOSED,0
669674.217,0,0,0,1.000,1.000,1.000,-90.00,180.00,-31.50,CLOSED,0
669674.221,0,0,0,1.000,1.000,1.000,-90.00,180.00,-31.50,CLOSED,0
669674.225,0,0,0,1.000,1.000,1.000,-90.00,180.00,-31.50,CLOSED,0
669674.228,0,0,0,1.000,1.000,1.000,-90.00,180.00,-31.50,CLOSED,0
669674.233,0,0,0,1.000,1.000,1.000,-90.00,180.00,-31.50,CLOSED,0
669674.236,0,0,0,1.000,1.000,1.000,-90.00,180.00,-31.50,CLOSED,0
669674.240,0,0,0,1.000,1.000,1.000,-90.00,180.00,-31.50,CLOSED,0
669674.244,0,0,0,1.000,1.000,1.000,-90.00,180.00,-31.50,CLOSED,0
669674.248,0,0,0,1.000,1.000,1.000,-90.00,180.00,-31.50,CLOSED,0
669674.252,0,0,0,1.000,1.000,1.000,-90.00,180.00,-31.50,CLOSED,0
669674.255,0,0,0,1.000,1.000,1.000,-90.00,180.00,-31.50,CLOSED,0
669674.258,0,0,0,1.000,1.000,1.000,-90.00,180.00,-31.50,CLOSED,0
669674.262,0,0,0,1.000,1.000,1.000,-90.00,180.00,-31.50,CLOSED,0
669674.267,0,0,0,1.000,1.000,1.000,-90.00,180.00,-31.50,CLOSED,0
669674.270,0,0,0,1.000,1.000,1.000,-90.00,180.00,-31.50,CLOSED,0
669674.278,0,0,0,1.000,1.000,1.000,-90.00,180.00,-31.50,CLOSED,0
669674.284,0,0,0,1.000,1.000,1.000,-90.00,180.00,-31.50,CLOSED,0
669674.288,0,0,0,1.000,1.000,1.000,-90.00,180.00,-31.50,CLOSED,0
669674.292,0,0,0,1.000,1.000,1.000,-90.00,180.00,-31.50,CLOSED,0
669674.298,0,0,0,1.000,1.000,1.000,-90.00,180.00,-31.50,CLOSED,0
669674.301,0,0,0,1.000,1.000,1.000,-90.00,180.00,-31.50,CLOSED,0
669674.305,0,0,0,1.000,1.000,1.000,-90.00,180.00,-31.50,CLOSED,0
669674.313,0,0,0,1.000,1.000,1.000,-90.00,180.00,-31.50,CLOSED,0
669674.317,0,0,0,1.000,1.000,1.000,-90.00,180.00,-31.50,CLOSED,0
669674.321,0,0,0,1.000,1.000,1.000,-90.00,180.00,-31.50,CLOSED,0
669674.329,0,0,0,1.000,1.000,1.000,-90.00,180.00,-31.50,CLOSED,0
669674.334,0,0,0,1.000,1.000,1.000,-90.00,180.00,-31.50,CLOSED,0
669674.338,0,0,0,1.000,1.000,1.000,-90.00,180.00,-31.50,CLOSED,0
669674.342,0,0,0,1.000,1.000,1.000,-90.00,180.00,-31.50,CLOSED,0
669674.348,0,0,0,1.000,1.000,1.000,-90.00,180.00,-31.50,CLOSED,0
669674.352,0,0,0,1.000,1.000,1.000,-90.00,180.00,-31.50,CLOSED,0
669674.362,0,0,0,1.000,1.000,1.000,-90.00,180.00,-31.50,CLOSED,0
669674.366,0,0,0,1.000,1.000,1.000,-90.00,180.00,-31.50,CLOSED,0
669674.371,0,0,0,1.000,1.000,1.000,-90.00,180.00,-31.50,CLOSED,0
669674.375,0,0,0,1.000,1.000,1.000,-90.00,180.00,-31.50,CLOSED,0
669674.384,0,0,0,1.000,1.000,1.000,-90.00,180.00,-31.50,CLOSED,0
669674.388,0,0,0,1.000,1.000,1.000,-90.00,180.00,-31.50,CLOSED,0
669674.393,0,0,0,1.000,1.000,1.000,-90.00,180.00,-31.50,CLOSED,0
669674.397,0,0,0,1.000,1.000,1.000,-90.00,180.00,-31.50,CLOSED,0
669674.401,0,0,0,1.000,1.000,1.000,-90.00,180.00,-31.50,CLOSED,0
669674.405,0,0,0,1.000,1.000,1.000,-90.00,180.00,-31.50,CLOSED,0
669674.408,0,0,0,1.000,1.000,1.000,-90.00,180.00,-31.50,CLOSED,0
669674.413,0,0,0,1.000,1.000,1.000,-90.00,180.00,-31.50,CLOSED,0
669674.416,0,0,0,1.000,1.000,1.000,-90.00,180.00,-31.50,CLOSED,0
669674.420,0,0,0,1.000,1.000,1.000,-90.00,180.00,-31.50,CLOSED,0
669674.424,0,0,0,1.000,1.000,1.000,-90.00,180.00,-31.50,CLOSED,0
669674.427,0,0,0,1.000,1.000,1.000,-90.00,180.00,-31.50,CLOSED,0
669674.431,0,0,0,1.000,1.000,1.000,-90.00,180.00,-31.50,CLOSED,0
669674.435,0,0,0,1.000,1.000,1.000,-90.00,180.00,-31.50,CLOSED,0
669674.439,0,0,0,1.000,1.000,1.000,-90.00,180.00,-31.50,CLOSED,0
669674.444,0,0,0,1.000,1.000,1.000,-90.00,180.00,-31.50,CLOSED,0
669674.447,0,0,0,1.000,1.000,1.000,-90.00,180.00,-31.50,CLOSED,0
669674.451,0,0,0,1.000,1.000,1.000,-90.00,180.00,-31.50,CLOSED,0
669674.456,0,0,0,1.000,1.000,1.000,-90.00,180.00,-31.50,CLOSED,0
669674.460,0,0,0,1.000,1.000,1.000,-90.00,180.00,-31.50,CLOSED,0
669674.464,0,0,0,1.000,1.000,1.000,-90.00,180.00,-31.50,CLOSED,0
669674.468,0,0,0,1.000,1.000,1.000,-90.00,180.00,-31.50,CLOSED,0
669674.472,0,0,0,1.000,1.000,1.000,-90.00,180.00,-31.50,CLOSED,0
669674.475,0,0,0,1.000,1.000,1.000,-90.00,180.00,-31.50,CLOSED,0
669674.480,0,0,0,1.000,1.000,1.000,-90.00,180.00,-31.50,CLOSED,0
669674.484,0,0,0,1.000,1.000,1.000,-90.00,180.00,-31.50,CLOSED,0
669674.489,0,0,0,1.000,1.000,1.000,-90.00,180.00,-31.50,CLOSED,0
669674.492,0,0,0,1.000,1.000,1.000,-90.00,180.00,-31.50,CLOSED,0
669674.496,0,0,0,1.000,1.000,1.000,-90.00,180.00,-31.50,CLOSED,0
669674.500,0,0,0,1.000,1.000,1.000,-90.00,180.00,-31.50,CLOSED,0
669674.503,0,0,0,1.000,1.000,1.000,-90.00,180.00,-31.50,CLOSED,0
669674.507,0,0,0,1.000,1.000,1.000,-90.00,180.00,-31.50,CLOSED,0
669674.515,0,0,0,1.000,1.000,1.000,-90.00,180.00,-31.50,CLOSED,0
669674.521,0,0,0,1.000,1.000,1.000,-90.00,180.00,-31.50,CLOSED,0
669674.525,0,0,0,1.000,1.000,1.000,-90.00,180.00,-31.50,CLOSED,0
669674.530,0,0,0,1.000,1.000,1.000,-90.00,180.00,-31.50,CLOSED,0
669674.534,0,0,0,1.000,1.000,1.000,-90.00,180.00,-31.50,CLOSED,0
669674.539,0,0,0,1.000,1.000,1.000,-90.00,180.00,-31.50,CLOSED,0
669674.543,0,0,0,1.000,1.000,1.000,-90.00,180.00,-31.50,CLOSED,0
669674.547,0,0,0,1.000,1.000,1.000,-90.00,180.00,-31.50,CLOSED,0
669674.550,0,0,0,1.000,1.000,1.000,-90.00,180.00,-31.50,CLOSED,0
669674.556,0,0,0,1.000,1.000,1.000,-90.00,180.00,-31.50,CLOSED,0
669674.564,0,0,0,1.000,1.000,1.000,-90.00,180.00,-31.50,CLOSED,0
669674.568,0,0,0,1.000,1.000,1.000,-90.00,180.00,-31.50,CLOSED,0
669674.572,0,0,0,1.000,1.000,1.000,-90.00,180.00,-31.50,CLOSED,0
669674.576,0,0,0,1.000,1.000,1.000,-90.00,180.00,-31.50,CLOSED,0
669674.582,0,0,0,1.000,1.000,1.000,-90.00,180.00,-31.50,CLOSED,0
669674.590,0,0,0,1.000,1.000,1.000,-90.00,180.00,-31.50,CLOSED,0
669674.595,0,0,0,1.000,1.000,1.000,-90.00,180.00,-31.50,CLOSED,0
669674.599,0,0,0,1.000,1.000,1.000,-90.00,180.00,-31.50,CLOSED,0
669674.603,0,0,0,1.000,1.000,1.000,-90.00,180.00,-31.50,CLOSED,0
669674.607,0,0,0,1.000,1.000,1.000,-90.00,180.00,-31.50,CLOSED,0
669674.612,0,0,0,1.000,1.000,1.000,-90.00,180.00,-31.50,CLOSED,0
669674.616,0,0,0,1.000,1.000,1.000,-90.00,180.00,-31.50,CLOSED,0
669674.620,0,0,0,1.000,1.000,1.000,-90.00,180.00,-31.50,CLOSED,0
669674.624,0,0,0,1.000,1.000,1.000,-90.00,180.00,-31.50,CLOSED,0
669674.631,0,0,0,1.000,1.000,1.000,-90.00,180.00,-31.50,CLOSED,0
669674.635,0,0,0,1.000,1.000,1.000,-90.00,180.00,-31.50,CLOSED,0
669674.639,0,0,0,1.000,1.000,1.000,-90.00,180.00,-31.50,CLOSED,0
669674.646,0,0,0,1.000,1.000,1.000,-90.00,180.00,-31.50,CLOSED,0
669674.654,0,0,0,1.000,1.000,1.000,-90.00,180.00,-31.50,CLOSED,0
669674.659,0,0,0,1.000,1.000,1.000,-90.00,180.00,-31.50,CLOSED,0
669674.662,0,0,0,0.999,1.000,1.000,-90.00,180.00,-31.50,CLOSED,0
669674.667,0,0,0,0.858,1.000,1.000,-90.00,180.00,-31.50,CLOSED,0
669674.671,0,0,0,0.484,1.000,1.000,-90.00,180.00,-31.50,CLOSED,0
669674.675,0,0,0,0.481,1.000,1.000,-90.00,180.00,-31.50,CLOSED,0
669674.678,0,0,0,0.604,1.000,1.000,-90.00,180.00,-31.50,CLOSED,0
669674.682,0,0,0,0.670,1.000,1.000,-90.00,180.00,-31.50,CLOSED,0
669674.689,0,0,0,0.776,1.000,1.000,-90.00,180.00,-31.50,CLOSED,0
669674.692,0,0,0,0.937,1.000,1.000,-90.00,180.00,-31.50,CLOSED,0
669674.697,0,0,0,0.997,1.000,1.000,-90.00,180.00,-31.50,CLOSED,0
669674.700,0,0,0,1.000,1.000,1.000,-90.00,180.00,-31.50,CLOSED,0
669674.704,0,0,0,1.000,1.000,1.000,-90.00,180.00,-31.50,CLOSED,0
669674.707,0,0,0,1.000,1.000,1.000,-90.00,180.00,-31.50,CLOSED,0
669674.711,3,0,0,1.000,1.000,1.000,-90.00,180.00,-31.50,OPEN,0
669674.718,3,0,0,1.000,1.000,1.000,-90.00,180.00,-31.50,OPEN,0
669674.722,3,0,0,1.000,1.000,1.000,-90.00,180.00,-31.50,OPEN,0
669674.727,3,0,0,1.000,1.000,1.000,-90.00,180.00,-31.50,OPEN,0
669674.732,3,0,0,1.000,1.000,1.000,-90.00,180.00,-31.50,OPEN,0
669674.737,3,0,0,1.000,1.000,1.000,-90.00,180.00,-31.50,OPEN,0
669674.742,3,0,0,1.000,1.000,1.000,-90.00,180.00,-31.50,OPEN,0
669674.746,3,0,0,1.000,1.000,1.000,-90.00,180.00,-31.50,OPEN,0
669674.750,3,0,0,1.000,1.000,1.000,-90.00,180.00,-31.50,OPEN,0
669674.755,3,0,0,1.000,1.000,1.000,-90.00,180.00,-31.50,OPEN,0
669674.759,3,0,0,1.000,1.000,1.000,-90.00,180.00,-31.50,OPEN,0
669674.763,3,0,0,1.000,1.000,1.000,-90.00,180.00,-31.50,OPEN,0
669674.766,3,0,0,1.000,1.000,1.000,-90.00,180.00,-31.50,OPEN,0
669674.770,3,0,0,1.000,1.000,1.000,-90.00,180.00,-31.50,OPEN,0
669674.774,3,0,0,1.000,1.000,1.000,-90.00,180.00,-31.50,OPEN,0
669674.779,3,0,0,1.000,1.000,1.000,-90.00,180.00,-31.50,OPEN,0
669674.783,3,0,0,1.000,1.000,1.000,-90.00,180.00,-31.50,OPEN,0
669674.787,3,0,0,1.000,1.000,1.000,-90.00,180.00,-31.50,OPEN,0
669674.790,3,0,0,1.000,1.000,1.000,-90.00,180.00,-31.50,OPEN,0
669674.794,3,0,0,1.000,1.000,1.000,-90.00,180.00,-31.50,OPEN,0
669674.798,3,0,0,1.000,1.000,1.000,-90.00,180.00,-31.50,OPEN,0
669674.802,3,0,0,1.000,1.000,1.000,-90.00,180.00,-31.50,OPEN,0
669674.806,3,0,0,1.000,1.000,1.000,-90.00,180.00,-31.50,OPEN,0
669674.810,3,0,0,1.000,1.000,1.000,-90.00,180.00,-31.50,OPEN,0
669674.815,3,0,0,1.000,1.000,1.000,-90.00,180.00,-31.50,OPEN,0
669674.819,3,0,0,1.000,1.000,1.000,-90.00,180.00,-31.50,OPEN,0
669674.823,3,0,0,1.000,1.000,1.000,-90.00,180.00,-31.50,OPEN,0
669674.828,3,0,0,1.000,1.000,1.000,-90.00,180.00,-31.50,OPEN,0
669674.832,3,0,0,1.000,1.000,1.000,-90.00,180.00,-31.50,OPEN,0
669674.836,3,0,0,1.000,1.000,1.000,-90.00,180.00,-31.50,OPEN,0
669674.840,3,0,0,1.000,1.000,1.000,-90.00,180.00,-31.50,OPEN,0
669674.844,3,0,0,1.000,1.000,1.000,-90.00,180.00,-31.50,OPEN,0
669674.848,3,0,0,1.000,1.000,1.000,-90.00,180.00,-31.50,OPEN,0
669674.852,3,0,0,1.000,1.000,1.000,-90.00,180.00,-31.50,OPEN,0
669674.856,3,0,0,1.000,1.000,1.000,-90.00,180.00,-31.50,OPEN,0
669674.860,3,0,0,1.000,1.000,1.000,-90.00,180.00,-31.50,OPEN,0
669674.864,3,0,0,1.000,1.000,1.000,-90.00,180.00,-31.50,OPEN,0
669674.868,3,0,0,1.000,1.000,1.000,-90.00,180.00,-31.50,OPEN,0
669674.872,3,0,0,1.000,1.000,1.000,-90.00,180.00,-31.50,OPEN,0
669674.876,3,0,0,1.000,1.000,1.000,-90.00,180.00,-31.50,OPEN,0
669674.879,3,0,0,1.000,1.000,1.000,-90.00,180.00,-31.50,OPEN,0
669674.883,3,0,0,1.000,1.000,1.000,-90.00,180.00,-31.50,OPEN,0
669674.887,3,0,0,1.000,1.000,1.000,-90.00,180.00,-31.50,OPEN,0
669674.891,3,0,0,1.000,1.000,1.000,-90.00,180.00,-31.50,OPEN,0
669674.895,3,0,0,1.000,1.000,1.000,-90.00,180.00,-31.50,OPEN,0
669674.899,3,0,0,1.000,1.000,1.000,-90.00,180.00,-31.50,OPEN,0
669674.904,3,0,0,1.000,1.000,1.000,-90.00,180.00,-31.50,OPEN,0
669674.913,3,0,0,1.000,1.000,1.000,-90.00,180.00,-31.50,OPEN,0
669674.916,3,0,0,1.000,1.000,1.000,-90.00,180.00,-31.50,OPEN,0
669674.921,3,0,0,1.000,1.000,1.000,-90.00,180.00,-31.50,OPEN,0
669674.924,3,0,0,1.000,1.000,1.000,-90.00,180.00,-31.50,OPEN,0
669674.929,3,0,0,1.000,1.000,1.000,-90.00,180.00,-31.50,OPEN,0
669674.933,3,0,0,1.000,1.000,1.000,-90.00,180.00,-31.50,OPEN,0
669674.941,3,0,0,1.000,1.000,1.000,-90.00,180.00,-31.50,OPEN,0
669674.945,3,0,0,1.000,1.000,1.000,-90.00,180.00,-31.50,OPEN,0
669674.949,3,0,0,1.000,1.000,1.000,-90.00,180.00,-31.50,OPEN,0
669674.953,3,0,0,1.000,1.000,1.000,-90.00,180.00,-31.50,OPEN,0
669674.957,3,0,0,1.000,1.000,1.000,-90.00,180.00,-31.50,OPEN,0
669674.961,3,0,0,1.000,1.000,1.000,-90.00,180.00,-31.50,OPEN,0
669674.965,3,0,0,1.000,1.000,1.000,-90.00,180.00,-31.50,OPEN,0
669674.969,3,0,0,1.000,1.000,1.000,-90.00,180.00,-31.50,OPEN,0
669674.972,3,0,0,1.000,1.000,1.000,-90.00,180.00,-31.50,OPEN,0
669674.976,3,0,0,1.000,1.000,1.000,-90.00,180.00,-31.50,OPEN,0
669674.980,3,0,0,1.000,1.000,1.000,-90.00,180.00,-31.50,OPEN,0
669674.985,3,0,0,1.000,1.000,1.000,-90.00,180.00,-31.50,OPEN,0
669674.989,3,0,0,1.000,1.000,1.000,-90.00,180.00,-31.50,OPEN,0
669674.993,3,0,0,1.000,1.000,1.000,-90.00,180.00,-31.50,OPEN,0
669674.997,3,0,0,1.000,1.000,1.000,-90.00,180.00,-31.50,OPEN,0
669675.000,3,0,0,1.000,1.000,1.000,-90.00,180.00,-31.50,OPEN,0
669675.004,3,0,0,1.000,1.000,1.000,-90.00,180.00,-31.50,OPEN,0
669675.008,3,0,0,1.000,1.000,1.000,-90.00,180.00,-31.50,OPEN,0
669675.012,3,0,0,1.000,1.000,1.000,-90.00,180.00,-31.50,OPEN,0
669675.016,3,0,0,1.000,1.000,1.000,-90.00,180.00,-31.50,OPEN,0
669675.020,3,0,0,1.000,1.000,1.000,-90.00,180.00,-31.50,OPEN,0
669675.024,3,0,0,1.000,1.000,1.000,-90.00,180.00,-31.50,OPEN,0
669675.028,3,0,0,1.000,1.000,1.000,-90.00,180.00,-31.50,OPEN,0
669675.031,3,0,0,1.000,1.000,1.000,-90.00,180.00,-31.50,OPEN,0
669675.035,3,0,0,1.000,1.000,1.000,-90.00,180.00,-31.50,OPEN,0
669675.039,3,0,0,1.000,1.000,1.000,-90.00,180.00,-31.50,OPEN,0
669675.043,3,0,0,1.000,1.000,1.000,-90.00,180.00,-31.50,OPEN,0
669675.048,3,0,0,1.000,1.000,1.000,-90.00,180.00,-31.50,OPEN,0
669675.053,3,0,0,1.000,1.000,1.000,-90.00,180.00,-31.50,OPEN,0
669675.062,3,0,0,1.000,1.000,1.000,-90.00,180.00,-31.50,OPEN,0
669675.067,3,0,0,1.000,1.000,1.000,-90.00,180.00,-31.50,OPEN,0
669675.071,3,0,0,1.000,1.000,1.000,-90.00,180.00,-31.50,OPEN,0
669675.077,3,0,0,1.000,1.000,1.000,-90.00,180.00,-31.50,OPEN,0
669675.081,3,0,0,1.000,1.000,1.000,-90.00,180.00,-31.50,OPEN,0
669675.085,3,0,0,1.000,1.000,1.000,-90.00,180.00,-31.50,OPEN,0
669675.089,3,0,0,1.000,1.000,1.000,-90.00,180.00,-31.50,OPEN,0
669675.097,3,0,0,1.000,1.000,1.000,-90.00,180.00,-31.50,OPEN,0
669675.100,3,0,0,1.000,1.000,1.000,-90.00,180.00,-31.50,OPEN,0
669675.104,3,0,0,1.000,1.000,1.000,-90.00,180.00,-31.50,OPEN,0
669675.109,3,0,0,1.000,1.000,1.000,-90.00,180.00,-31.50,OPEN,0
669675.113,3,0,0,1.000,1.000,1.000,-90.00,180.00,-31.50,OPEN,0
669675.120,3,0,0,1.000,1.000,1.000,-90.00,180.00,-31.50,OPEN,0
669675.126,3,0,0,1.000,1.000,1.000,-90.00,180.00,-31.50,OPEN,0
669675.134,3,0,0,1.000,1.000,1.000,-90.00,180.00,-31.50,OPEN,0
669675.139,3,0,0,1.000,1.000,1.000,-90.00,180.00,-31.50,OPEN,0
669675.142,3,0,0,1.000,1.000,1.000,-90.00,180.00,-31.50,OPEN,0
669675.146,3,0,0,1.000,1.000,1.000,-90.00,180.00,-31.50,OPEN,0
669675.150,3,0,0,1.000,1.000,1.000,-90.00,180.00,-31.50,OPEN,0
669675.153,3,0,0,1.000,1.000,1.000,-90.00,180.00,-31.50,OPEN,0
669675.161,3,0,0,1.000,1.000,1.000,-90.00,180.00,-31.50,OPEN,0
669675.165,3,0,0,1.000,1.000,1.000,-90.00,180.00,-31.50,OPEN,0
669675.171,3,0,0,1.000,1.000,1.000,-90.00,180.00,-31.50,OPEN,0
669675.175,3,0,0,1.000,1.000,1.000,-90.00,180.00,-31.50,OPEN,0
669675.183,3,0,0,1.000,1.000,1.000,-90.00,180.00,-31.50,OPEN,0
669675.187,3,0,0,0.999,1.000,1.000,-90.00,180.00,-31.50,OPEN,0
669675.195,3,0,0,0.975,1.000,1.000,-90.00,180.00,-31.50,OPEN,0
669675.199,3,0,0,0.869,1.000,1.000,-90.00,180.00,-31.50,OPEN,0
669675.207,3,0,0,0.666,1.000,1.000,-90.00,180.00,-31.50,OPEN,0
669675.211,3,0,0,0.511,1.000,1.000,-90.00,180.00,-31.50,OPEN,0
669675.217,3,0,0,0.589,1.000,1.000,-90.00,180.00,-31.50,OPEN,0
669675.221,3,0,0,0.639,1.000,1.000,-90.00,180.00,-31.50,OPEN,0
669675.225,3,0,0,0.562,1.000,1.000,-90.00,180.00,-31.50,OPEN,0
669675.229,3,0,0,0.920,1.000,1.000,-90.00,180.00,-31.50,OPEN,0
669675.233,3,0,0,1.000,1.000,1.000,-90.00,180.00,-31.50,OPEN,0
669675.237,3,0,0,1.000,1.000,1.000,-90.00,180.00,-31.50,OPEN,0
669675.245,3,0,0,1.000,1.000,1.000,-90.00,180.00,-31.50,OPEN,0
669675.249,3,0,0,1.000,1.000,1.000,-90.00,180.00,-31.50,OPEN,0
669675.253,3,0,0,1.000,1.000,1.000,-90.00,180.00,-31.50,OPEN,0
669675.261,3,0,0,1.000,1.000,1.000,-90.00,180.00,-31.50,OPEN,0
669675.266,0,0,0,1.000,1.000,1.000,-90.00,180.00,-31.50,OPEN,0
669675.271,0,0,0,1.000,1.000,1.000,-90.00,180.00,-31.50,OPEN,0
669675.275,0,0,0,1.000,1.000,1.000,-90.00,180.00,-31.50,OPEN,0
669675.279,0,0,0,1.000,1.000,1.000,-90.00,180.00,-31.50,OPEN,0
669675.282,0,0,0,1.000,1.000,1.000,-90.00,180.00,-31.50,OPEN,0
669675.287,0,0,0,1.000,1.000,1.000,-90.00,180.00,-31.50,OPEN,0
669675.291,0,0,0,1.000,1.000,1.000,-90.00,180.00,-31.50,OPEN,0
669675.295,0,0,0,1.000,1.000,1.000,-90.00,180.00,-31.50,OPEN,0
669675.299,0,0,0,1.000,1.000,1.000,-90.00,180.00,-31.50,OPEN,0
669675.303,0,0,0,1.000,1.000,1.000,-90.00,180.00,-31.50,OPEN,0
669675.307,0,0,0,1.000,1.000,1.000,-90.00,180.00,-31.50,OPEN,0
669675.313,0,0,0,1.000,1.000,1.000,-90.00,180.00,-31.50,OPEN,0
669675.317,0,0,0,1.000,1.000,1.000,-90.00,180.00,-31.50,OPEN,0
669675.321,0,0,0,1.000,1.000,1.000,-90.00,180.00,-31.50,OPEN,0
669675.325,0,0,0,1.000,1.000,1.000,-90.00,180.00,-31.50,OPEN,0
669675.329,0,0,0,1.000,1.000,1.000,-90.00,180.00,-31.50,OPEN,0
669675.333,0,0,0,1.000,1.000,1.000,-90.00,180.00,-31.50,OPEN,0
669675.337,0,0,0,1.000,1.000,1.000,-90.00,180.00,-31.50,OPEN,0
669675.341,0,0,0,1.000,1.000,1.000,-90.00,180.00,-31.50,OPEN,0
669675.345,0,0,0,1.000,1.000,1.000,-90.00,180.00,-31.50,OPEN,0
669675.349,0,0,0,0.999,1.000,1.000,-90.00,180.00,-31.50,OPEN,0
669675.353,0,0,0,1.000,1.000,1.000,-90.00,180.00,-31.50,OPEN,0
669675.357,0,0,0,1.000,1.000,1.000,-90.00,180.00,-31.50,OPEN,0
669675.361,0,0,0,1.000,1.000,1.000,-90.00,180.00,-31.50,OPEN,0
669675.369,0,0,0,1.000,1.000,1.000,-90.00,180.00,-31.50,OPEN,0
669675.373,0,0,0,1.000,1.000,1.000,-90.00,180.00,-31.50,OPEN,0
669675.377,0,0,0,1.000,1.000,1.000,-90.00,180.00,-31.50,OPEN,0
669675.381,0,0,0,1.000,1.000,1.000,-90.00,180.00,-31.50,OPEN,0
669675.384,0,0,0,1.000,1.000,1.000,-90.00,180.00,-31.50,OPEN,0
669675.388,0,0,0,1.000,1.000,1.000,-90.00,180.00,-31.50,OPEN,0
669675.394,0,0,0,1.000,1.000,1.000,-90.00,180.00,-31.50,OPEN,0
669675.403,0,0,0,1.000,1.000,1.000,-90.00,180.00,-31.50,OPEN,0
669675.413,0,0,0,1.000,1.000,1.000,-90.00,180.00,-31.50,OPEN,0
669675.421,0,0,0,1.000,1.000,1.000,-90.00,180.00,-31.50,OPEN,0
669675.429,0,0,0,1.000,1.000,1.000,-90.00,180.00,-31.50,OPEN,0
669675.437,0,0,0,1.000,1.000,1.000,-90.00,180.00,-31.50,OPEN,0
669675.445,0,0,0,1.000,1.000,1.000,-90.00,180.00,-31.50,OPEN,0
669675.453,0,0,0,1.000,1.000,1.000,-90.00,180.00,-31.50,OPEN,0
669675.461,0,0,0,1.000,1.000,1.000,-90.00,180.00,-31.50,OPEN,0
669675.470,0,0,0,1.000,1.000,1.000,-90.00,180.00,-31.50,OPEN,0
669675.478,0,0,0,1.000,1.000,1.000,-90.00,180.00,-31.50,OPEN,0
669675.486,0,0,0,1.000,1.000,1.000,-90.00,180.00,-31.50,OPEN,0
669675.494,0,0,0,1.000,1.000,1.000,-90.00,180.00,-31.50,OPEN,0
669675.500,0,0,0,1.000,1.000,1.000,-90.00,180.00,-31.50,OPEN,0
669675.504,0,0,0,1.000,1.000,1.000,-90.00,180.00,-31.50,OPEN,0
669675.508,0,0,0,1.000,1.000,1.000,-90.00,180.00,-31.50,OPEN,0
669675.512,0,0,0,1.000,1.000,1.000,-90.00,180.00,-31.50,OPEN,0
669675.517,0,0,0,1.000,1.000,1.000,-90.00,180.00,-31.50,OPEN,0
669675.520,0,0,0,1.000,1.000,1.000,-90.00,180.00,-31.50,OPEN,0
669675.524,0,0,0,1.000,1.000,1.000,-90.00,180.00,-31.50,OPEN,0
669675.528,0,0,0,1.000,1.000,1.000,-90.00,180.00,-31.50,OPEN,0
669675.532,0,0,0,1.000,1.000,1.000,-90.00,180.00,-31.50,OPEN,0
669675.535,0,0,0,1.000,1.000,1.000,-90.00,180.00,-31.50,OPEN,0
669675.540,0,0,0,1.000,1.000,1.000,-90.00,180.00,-31.50,OPEN,0
669675.545,0,0,0,1.000,1.000,1.000,-90.00,180.00,-31.50,OPEN,0
669675.549,0,0,0,1.000,1.000,1.000,-90.00,180.00,-31.50,OPEN,0
669675.552,0,0,0,1.000,1.000,1.000,-90.00,180.00,-31.50,OPEN,0
669675.557,0,0,0,1.000,1.000,1.000,-90.00,180.00,-31.50,OPEN,0
669675.561,0,0,0,1.000,1.000,1.000,-90.00,180.00,-31.50,OPEN,0
669675.569,0,0,0,1.000,1.000,1.000,-90.00,180.00,-31.50,OPEN,0
669675.575,0,0,0,1.000,1.000,1.000,-90.00,180.00,-31.50,OPEN,0
669675.580,0,0,0,1.000,1.000,1.000,-90.00,180.00,-31.50,OPEN,0
669675.584,0,0,0,1.000,1.000,1.000,-90.00,180.00,-31.50,OPEN,0
669675.588,0,0,0,1.000,1.000,1.000,-90.00,180.00,-31.50,OPEN,0
669675.592,0,0,0,1.000,1.000,1.000,-90.00,180.00,-31.50,OPEN,0
669675.596,0,0,0,1.000,1.000,1.000,-90.00,180.00,-31.50,OPEN,0
669675.600,0,0,0,1.000,1.000,1.000,-90.00,180.00,-31.50,OPEN,0
669675.604,0,0,0,1.000,1.000,1.000,-90.00,180.00,-31.50,OPEN,0
669675.608,0,0,0,1.000,1.000,1.000,-90.00,180.00,-31.50,OPEN,0
669675.616,0,0,0,1.000,1.000,1.000,-90.00,180.00,-31.50,OPEN,0
669675.621,0,0,0,1.000,1.000,1.000,-90.00,180.00,-31.50,OPEN,0
669675.625,0,0,0,1.000,1.000,1.000,-90.00,180.00,-31.50,OPEN,0
669675.629,0,0,0,1.000,1.000,1.000,-90.00,180.00,-31.50,OPEN,0
669675.639,0,0,0,1.000,1.000,1.000,-90.00,180.00,-31.50,OPEN,0
669675.647,0,0,0,1.000,1.000,1.000,-90.00,180.00,-31.50,OPEN,0
669675.656,0,0,0,1.000,1.000,1.000,-90.00,180.00,-31.50,OPEN,0
669675.664,0,0,0,1.000,1.000,1.000,-90.00,180.00,-31.50,OPEN,0
669675.672,0,0,0,1.000,1.000,1.000,-90.00,180.00,-31.50,OPEN,0
669675.680,0,0,0,1.000,1.000,1.000,-90.00,180.00,-31.50,OPEN,0
669675.688,0,0,0,1.000,1.000,1.000,-90.00,180.00,-31.50,OPEN,0
669675.696,0,0,0,1.000,1.000,1.000,-90.00,180.00,-31.50,OPEN,0
669675.705,0,0,0,1.000,1.000,1.000,-90.00,180.00,-31.50,OPEN,0
669675.711,0,0,0,1.000,1.000,1.000,-90.00,180.00,-31.50,OPEN,0
669675.715,0,0,0,1.000,1.000,1.000,-90.00,180.00,-31.50,OPEN,0
669675.719,0,0,0,1.000,1.000,1.000,-90.00,180.00,-31.50,OPEN,0
669675.723,0,0,0,1.000,1.000,1.000,-90.00,180.00,-31.50,OPEN,0
669675.731,0,0,0,1.000,1.000,1.000,-90.00,180.00,-31.50,OPEN,0
669675.735,0,0,0,1.000,1.000,1.000,-90.00,180.00,-31.50,OPEN,0
669675.739,0,0,0,1.000,1.000,1.000,-90.00,180.00,-31.50,OPEN,0
669675.743,0,0,0,1.000,1.000,1.000,-90.00,180.00,-31.50,OPEN,0
669675.746,0,0,0,1.000,1.000,1.000,-90.00,180.00,-31.50,OPEN,0
669675.750,0,0,0,1.000,1.000,1.000,-90.00,180.00,-31.50,OPEN,0
669675.754,0,0,0,1.000,1.000,1.000,-90.00,180.00,-31.50,OPEN,0
669675.758,0,0,0,1.000,1.000,1.000,-90.00,180.00,-31.50,OPEN,0
669675.762,0,0,0,1.000,1.000,1.000,-90.00,180.00,-31.50,OPEN,0
669675.766,0,0,0,1.000,1.000,1.000,-90.00,180.00,-31.50,OPEN,0
669675.769,0,0,0,1.000,1.000,1.000,-90.00,180.00,-31.50,OPEN,0
669675.773,0,0,0,1.000,1.000,1.000,-90.00,180.00,-31.50,OPEN,0
669675.777,0,0,0,1.000,1.000,1.000,-90.00,180.00,-31.50,OPEN,0
