t,hand,elbow,shoulder,p_hand,p_elbow,p_shoulder,J2,J3,J6,grip_state,cmd_sent
672230.959,0,0,0,0.805,1.000,1.000,-90.00,180.00,0.00,OPEN,0
672230.978,0,0,0,0.711,1.000,1.000,-90.00,180.00,0.00,OPEN,0
672230.982,0,0,0,0.996,1.000,1.000,-90.00,180.00,0.00,OPEN,0
672230.990,0,0,0,1.000,1.000,1.000,-90.00,180.00,0.00,OPEN,0
672230.994,0,0,0,1.000,1.000,1.000,-90.00,180.00,0.00,OPEN,0
672230.998,0,0,0,1.000,1.000,1.000,-90.00,180.00,0.00,OPEN,0
672231.002,0,0,0,1.000,1.000,1.000,-90.00,180.00,0.00,OPEN,0
672231.006,0,0,0,1.000,1.000,1.000,-90.00,180.00,0.00,OPEN,0
672231.010,0,0,0,1.000,1.000,1.000,-90.00,180.00,0.00,OPEN,0
672231.013,0,0,0,1.000,1.000,1.000,-90.00,180.00,0.00,OPEN,0
672231.017,0,0,0,1.000,1.000,1.000,-90.00,180.00,0.00,OPEN,0
672231.021,0,0,0,1.000,1.000,1.000,-90.00,180.00,0.00,OPEN,0
672231.024,0,0,0,1.000,1.000,1.000,-90.00,180.00,0.00,OPEN,0
672231.028,0,0,0,1.000,1.000,1.000,-90.00,180.00,0.00,OPEN,0
672231.033,0,0,0,1.000,1.000,1.000,-90.00,180.00,0.00,OPEN,0
672231.038,0,0,0,1.000,1.000,1.000,-90.00,180.00,0.00,OPEN,0
672231.041,0,0,0,1.000,1.000,1.000,-90.00,180.00,0.00,OPEN,0
672231.045,0,0,0,1.000,1.000,1.000,-90.00,180.00,0.00,OPEN,0
672231.048,0,0,0,1.000,1.000,1.000,-90.00,180.00,0.00,OPEN,0
672231.052,0,0,0,1.000,1.000,1.000,-90.00,180.00,0.00,OPEN,0
672231.056,0,0,0,1.000,1.000,1.000,-90.00,180.00,0.00,OPEN,0
672231.059,0,0,0,1.000,1.000,1.000,-90.00,180.00,0.00,OPEN,0
672231.063,0,0,0,1.000,1.000,1.000,-90.00,180.00,0.00,OPEN,0
672231.067,0,0,0,1.000,1.000,1.000,-90.00,180.00,0.00,OPEN,0
672231.071,0,0,0,1.000,1.000,1.000,-90.00,180.00,0.00,OPEN,0
672231.075,0,0,0,1.000,1.000,1.000,-90.00,180.00,0.00,OPEN,0
672231.079,0,0,0,1.000,1.000,1.000,-90.00,180.00,0.00,OPEN,0
672231.084,0,0,0,1.000,1.000,1.000,-90.00,180.00,0.00,OPEN,0
672231.088,0,0,0,1.000,1.000,1.000,-90.00,180.00,0.00,OPEN,0
672231.093,0,0,0,1.000,1.000,1.000,-90.00,180.00,0.00,OPEN,0
672231.097,0,0,0,1.000,1.000,1.000,-90.00,180.00,0.00,OPEN,0
672231.100,0,0,0,1.000,1.000,1.000,-90.00,180.00,0.00,OPEN,0
672231.105,0,0,0,1.000,1.000,1.000,-90.00,180.00,0.00,OPEN,0
672231.108,0,0,0,1.000,1.000,1.000,-90.00,180.00,0.00,OPEN,0
672231.112,0,0,0,1.000,1.000,1.000,-90.00,180.00,0.00,OPEN,0
672231.115,0,0,0,1.000,1.000,1.000,-90.00,180.00,0.00,OPEN,0
672231.119,0,0,0,1.000,1.000,1.000,-90.00,180.00,0.00,OPEN,0
672231.122,0,0,0,1.000,1.000,1.000,-90.00,180.00,0.00,OPEN,0
672231.126,0,0,0,1.000,1.000,1.000,-90.00,180.00,0.00,OPEN,0
672231.129,0,0,0,1.000,1.000,1.000,-90.00,180.00,0.00,OPEN,0
672231.133,0,0,0,1.000,1.000,1.000,-90.00,180.00,0.00,OPEN,0
672231.136,0,0,0,1.000,1.000,1.000,-90.00,180.00,0.00,OPEN,0
672231.140,0,0,0,1.000,1.000,1.000,-90.00,180.00,0.00,OPEN,0
672231.143,0,0,0,1.000,1.000,1.000,-90.00,180.00,0.00,OPEN,0
672231.147,0,0,0,1.000,1.000,1.000,-90.00,180.00,0.00,OPEN,0
672231.151,0,0,0,1.000,1.000,1.000,-90.00,180.00,0.00,OPEN,0
672231.154,0,0,0,1.000,1.000,1.000,-90.00,180.00,0.00,OPEN,0
672231.158,0,0,0,1.000,1.000,1.000,-90.00,180.00,0.00,OPEN,0
672231.162,0,0,0,1.000,1.000,1.000,-90.00,180.00,0.00,OPEN,0
672231.166,0,0,0,1.000,1.000,1.000,-90.00,180.00,0.00,OPEN,0
672231.170,0,0,0,1.000,1.000,1.000,-90.00,180.00,0.00,OPEN,0
672231.174,0,0,0,1.000,1.000,1.000,-90.00,180.00,0.00,OPEN,0
672231.178,0,0,0,1.000,1.000,1.000,-90.00,180.00,0.00,OPEN,0
672231.182,0,0,0,1.000,1.000,1.000,-90.00,180.00,0.00,OPEN,0
672231.187,0,0,0,1.000,1.000,1.000,-90.00,180.00,0.00,OPEN,0
672231.191,0,0,0,1.000,1.000,1.000,-90.00,180.00,0.00,OPEN,0
672231.195,0,0,0,1.000,1.000,1.000,-90.00,180.00,0.00,OPEN,0
672231.201,0,0,0,1.000,1.000,1.000,-90.00,180.00,0.00,OPEN,0
672231.206,0,0,0,1.000,1.000,1.000,-90.00,180.00,0.00,OPEN,0
672231.211,0,0,0,1.000,1.000,1.000,-90.00,180.00,0.00,OPEN,0
672231.216,0,0,0,1.000,1.000,1.000,-90.00,180.00,0.00,OPEN,0
672231.220,0,0,0,1.000,1.000,1.000,-90.00,180.00,0.00,OPEN,0
672231.225,0,0,0,1.000,1.000,1.000,-90.00,180.00,0.00,OPEN,0
672231.228,0,0,0,1.000,1.000,1.000,-90.00,180.00,0.00,OPEN,0
672231.232,0,0,0,1.000,1.000,1.000,-90.00,180.00,0.00,OPEN,0
672231.235,0,0,0,1.000,1.000,1.000,-90.00,180.00,0.00,OPEN,0
672231.239,0,0,0,1.000,1.000,1.000,-90.00,180.00,0.00,OPEN,0
672231.243,0,0,0,1.000,1.000,1.000,-90.00,180.00,0.00,OPEN,0
672231.246,0,0,0,1.000,1.000,1.000,-90.00,180.00,0.00,OPEN,0
672231.250,0,0,0,1.000,1.000,1.000,-90.00,180.00,0.00,OPEN,0
672231.253,0,0,0,1.000,1.000,1.000,-90.00,180.00,0.00,OPEN,0
672231.257,0,0,0,1.000,1.000,1.000,-90.00,180.00,0.00,OPEN,0
672231.261,0,0,0,1.000,1.000,1.000,-90.00,180.00,0.00,OPEN,0
672231.265,0,0,0,1.000,1.000,1.000,-90.00,180.00,0.00,OPEN,0
672231.269,0,0,0,1.000,1.000,1.000,-90.00,180.00,0.00,OPEN,0
672231.275,0,0,0,1.000,1.000,1.000,-90.00,180.00,0.00,OPEN,0
672231.281,0,0,0,1.000,1.000,1.000,-90.00,180.00,0.00,OPEN,0
672231.288,0,0,0,1.000,1.000,1.000,-90.00,180.00,0.00,OPEN,0
672231.295,0,0,0,1.000,1.000,1.000,-90.00,180.00,0.00,OPEN,0
672231.302,0,0,0,1.000,1.000,1.000,-90.00,180.00,0.00,OPEN,0
672231.309,0,0,0,1.000,1.000,1.000,-90.00,180.00,0.00,OPEN,0
672231.314,0,0,0,1.000,1.000,1.000,-90.00,180.00,0.00,OPEN,0
672231.319,0,0,0,1.000,1.000,1.000,-90.00,180.00,0.00,OPEN,0
672231.323,0,0,0,1.000,1.000,1.000,-90.00,180.00,0.00,OPEN,0
672231.327,0,0,0,1.000,1.000,1.000,-90.00,180.00,0.00,OPEN,0
672231.331,0,0,0,1.000,1.000,1.000,-90.00,180.00,0.00,OPEN,0
672231.335,0,0,0,1.000,1.000,1.000,-90.00,180.00,0.00,OPEN,0
672231.339,0,0,0,1.000,1.000,1.000,-90.00,180.00,0.00,OPEN,0
672231.343,0,0,0,1.000,1.000,1.000,-90.00,180.00,0.00,OPEN,0
672231.347,0,0,0,1.000,1.000,1.000,-90.00,180.00,0.00,OPEN,0
672231.351,0,0,0,1.000,1.000,1.000,-90.00,180.00,0.00,OPEN,0
672231.354,0,0,0,1.000,1.000,1.000,-90.00,180.00,0.00,OPEN,0
672231.358,0,0,0,1.000,1.000,1.000,-90.00,180.00,0.00,OPEN,0
672231.362,0,0,0,1.000,1.000,1.000,-90.00,180.00,0.00,OPEN,0
672231.367,0,0,0,1.000,1.000,1.000,-90.00,180.00,0.00,OPEN,0
672231.371,0,0,0,1.000,1.000,1.000,-90.00,180.00,0.00,OPEN,0
672231.376,0,0,0,1.000,1.000,1.000,-90.00,180.00,0.00,OPEN,0
672231.380,0,0,0,1.000,1.000,1.000,-90.00,180.00,0.00,OPEN,0
672231.385,0,0,0,1.000,1.000,1.000,-90.00,180.00,0.00,OPEN,0
672231.389,0,0,0,1.000,1.000,1.000,-90.00,180.00,0.00,OPEN,0
672231.393,0,0,0,1.000,1.000,1.000,-90.00,180.00,0.00,OPEN,0
672231.397,0,0,0,1.000,1.000,1.000,-90.00,180.00,0.00,OPEN,0
672231.400,0,0,0,1.000,1.000,1.000,-90.00,180.00,0.00,OPEN,0
672231.406,0,0,0,1.000,1.000,1.000,-90.00,180.00,0.00,OPEN,0
672231.412,0,0,0,1.000,0.999,1.000,-90.00,180.00,0.00,OPEN,0
672231.416,0,0,0,1.000,0.997,1.000,-90.00,180.00,0.00,OPEN,0
672231.419,0,0,0,1.000,0.994,1.000,-90.00,180.00,0.00,OPEN,0
672231.423,0,0,0,1.000,0.998,1.000,-90.00,180.00,0.00,OPEN,0
672231.426,0,0,0,1.000,0.999,1.000,-90.00,180.00,0.00,OPEN,0
672231.430,0,0,0,1.000,1.000,1.000,-90.00,180.00,0.00,OPEN,0
672231.434,0,0,0,1.000,1.000,1.000,-90.00,180.00,0.00,OPEN,0
672231.438,0,0,0,1.000,1.000,1.000,-90.00,180.00,0.00,OPEN,0
672231.443,0,0,0,1.000,1.000,1.000,-90.00,180.00,0.00,OPEN,0
672231.447,0,0,0,1.000,1.000,1.000,-90.00,180.00,0.00,OPEN,0
672231.451,0,0,0,1.000,1.000,1.000,-90.00,180.00,0.00,OPEN,0
672231.455,0,0,0,1.000,1.000,1.000,-90.00,180.00,0.00,OPEN,0
672231.460,0,0,0,1.000,1.000,1.000,-90.00,180.00,0.00,OPEN,0
672231.463,0,0,0,1.000,1.000,1.000,-90.00,180.00,0.00,OPEN,0
672231.467,0,0,0,0.540,1.000,1.000,-90.00,180.00,0.00,OPEN,0
672231.471,0,0,0,0.866,1.000,1.000,-90.00,180.00,0.00,OPEN,0
672231.475,0,0,0,0.570,1.000,1.000,-90.00,180.00,0.00,OPEN,0
672231.479,0,0,0,0.697,1.000,1.000,-90.00,180.00,0.00,OPEN,0
672231.483,0,0,0,0.604,1.000,1.000,-90.00,180.00,0.00,OPEN,0
672231.488,0,0,0,0.676,1.000,1.000,-90.00,180.00,0.00,OPEN,0
672231.493,0,0,0,0.688,1.000,1.000,-90.00,180.00,0.00,OPEN,0
672231.498,0,0,0,0.960,1.000,1.000,-90.00,180.00,0.00,OPEN,0
672231.504,0,0,0,1.000,1.000,1.000,-90.00,180.00,0.00,OPEN,0
672231.509,0,0,0,1.000,1.000,1.000,-90.00,180.00,0.00,OPEN,0
672231.513,0,0,0,1.000,1.000,1.000,-90.00,180.00,0.00,OPEN,0
672231.517,0,0,0,1.000,1.000,1.000,-90.00,180.00,0.00,OPEN,0
672231.522,0,0,0,1.000,1.000,1.000,-90.00,180.00,0.00,OPEN,0
672231.526,0,0,0,1.000,1.000,1.000,-90.00,180.00,0.00,OPEN,0
672231.530,0,0,0,1.000,1.000,1.000,-90.00,180.00,0.00,OPEN,0
672231.534,0,0,0,1.000,1.000,1.000,-90.00,180.00,0.00,OPEN,0
672231.539,0,0,0,1.000,1.000,1.000,-90.00,180.00,0.00,OPEN,0
672231.543,0,0,0,1.000,1.000,1.000,-90.00,180.00,0.00,OPEN,0
672231.550,0,0,0,1.000,1.000,1.000,-90.00,180.00,0.00,OPEN,0
672231.555,0,0,0,1.000,1.000,1.000,-90.00,180.00,0.00,OPEN,0
672231.559,0,0,0,1.000,1.000,1.000,-90.00,180.00,0.00,OPEN,0
672231.563,0,0,0,1.000,1.000,1.000,-90.00,180.00,0.00,OPEN,0
672231.568,0,0,0,1.000,1.000,1.000,-90.00,180.00,0.00,OPEN,0
672231.572,0,0,0,1.000,1.000,1.000,-90.00,180.00,0.00,OPEN,0
672231.576,0,0,0,1.000,1.000,1.000,-90.00,180.00,0.00,OPEN,0
672231.579,0,0,0,1.000,1.000,1.000,-90.00,180.00,0.00,OPEN,0
672231.583,0,0,0,1.000,1.000,1.000,-90.00,180.00,0.00,OPEN,0
672231.586,0,0,0,1.000,1.000,1.000,-90.00,180.00,0.00,OPEN,0
672231.590,0,0,0,1.000,1.000,1.000,-90.00,180.00,0.00,OPEN,0
672231.593,0,0,0,1.000,1.000,1.000,-90.00,180.00,0.00,OPEN,0
672231.597,0,0,0,1.000,1.000,1.000,-90.00,180.00,0.00,OPEN,0
672231.600,0,0,0,1.000,1.000,1.000,-90.00,180.00,0.00,OPEN,0
672231.604,0,0,0,1.000,1.000,1.000,-90.00,180.00,0.00,OPEN,0
672231.607,0,0,0,1.000,1.000,1.000,-90.00,180.00,0.00,OPEN,0
672231.611,0,0,0,1.000,1.000,1.000,-90.00,180.00,0.00,OPEN,0
672231.614,0,0,0,0.999,1.000,1.000,-90.00,180.00,0.00,OPEN,0
672231.618,0,0,0,1.000,1.000,1.000,-90.00,180.00,0.00,OPEN,0
672231.621,0,0,0,1.000,1.000,1.000,-90.00,180.00,0.00,OPEN,0
672231.625,0,0,0,1.000,1.000,1.000,-90.00,180.00,0.00,OPEN,0
672231.631,0,0,0,1.000,1.000,1.000,-90.00,180.00,0.00,OPEN,0
672231.634,0,0,0,1.000,1.000,1.000,-90.00,180.00,0.00,OPEN,0
672231.638,0,0,0,1.000,1.000,1.000,-90.00,180.00,0.00,OPEN,0
672231.643,0,0,0,1.000,1.000,1.000,-90.00,180.00,0.00,OPEN,0
672231.647,0,0,0,1.000,1.000,1.000,-90.00,180.00,0.00,OPEN,0
672231.651,0,0,0,1.000,1.000,1.000,-90.00,180.00,0.00,OPEN,0
672231.655,0,0,0,1.000,1.000,1.000,-90.00,180.00,0.00,OPEN,0
672231.659,0,0,0,1.000,1.000,1.000,-90.00,180.00,0.00,OPEN,0
672231.663,0,0,0,1.000,1.000,1.000,-90.00,180.00,0.00,OPEN,0
672231.666,0,0,0,1.000,1.000,1.000,-90.00,180.00,0.00,OPEN,0
672231.670,0,0,0,1.000,1.000,1.000,-90.00,180.00,0.00,OPEN,0
672231.673,0,0,0,1.000,1.000,1.000,-90.00,180.00,0.00,OPEN,0
672231.676,0,0,0,1.000,1.000,1.000,-90.00,180.00,0.00,OPEN,0
672231.680,0,0,0,1.000,1.000,1.000,-90.00,180.00,0.00,OPEN,0
672231.684,0,0,0,1.000,1.000,1.000,-90.00,180.00,0.00,OPEN,0
672231.687,0,0,0,0.999,1.000,1.000,-90.00,180.00,0.00,OPEN,0
672231.691,0,0,0,1.000,1.000,1.000,-90.00,180.00,0.00,OPEN,0
672231.697,0,0,0,1.000,1.000,1.000,-90.00,180.00,0.00,OPEN,0
672231.703,0,0,0,1.000,1.000,1.000,-90.00,180.00,0.00,OPEN,0
672231.707,0,0,0,1.000,1.000,1.000,-90.00,180.00,0.00,OPEN,0
672231.713,0,0,0,1.000,1.000,1.000,-90.00,180.00,0.00,OPEN,0
672231.717,0,0,0,1.000,1.000,1.000,-90.00,180.00,0.00,OPEN,0
672231.722,0,0,0,1.000,1.000,1.000,-90.00,180.00,0.00,OPEN,0
672231.726,0,0,0,1.000,1.000,1.000,-90.00,180.00,0.00,OPEN,0
672231.730,0,0,0,1.000,1.000,1.000,-90.00,180.00,0.00,OPEN,0
672231.733,0,0,0,1.000,1.000,1.000,-90.00,180.00,0.00,OPEN,0
672231.737,0,0,0,1.000,1.000,1.000,-90.00,180.00,0.00,OPEN,0
672231.741,0,0,0,1.000,1.000,1.000,-90.00,180.00,0.00,OPEN,0
672231.744,0,0,0,1.000,1.000,1.000,-90.00,180.00,0.00,OPEN,0
672231.748,0,0,0,1.000,1.000,1.000,-90.00,180.00,0.00,OPEN,0
672231.753,0,0,0,0.999,1.000,1.000,-90.00,180.00,0.00,OPEN,0
672231.757,0,0,0,1.000,1.000,1.000,-90.00,180.00,0.00,OPEN,0
672231.762,0,0,0,1.000,1.000,1.000,-90.00,180.00,0.00,OPEN,0
672231.768,0,0,0,1.000,1.000,1.000,-90.00,180.00,0.00,OPEN,0
672231.776,0,0,0,1.000,1.000,1.000,-90.00,180.00,0.00,OPEN,0
672231.784,0,0,0,1.000,1.000,1.000,-90.00,180.00,0.00,OPEN,0
672231.790,0,0,0,1.000,1.000,1.000,-90.00,180.00,0.00,OPEN,0
672231.796,0,0,0,1.000,1.000,1.000,-90.00,180.00,0.00,OPEN,0
672231.800,0,0,0,1.000,1.000,1.000,-90.00,180.00,0.00,OPEN,0
672231.805,0,0,0,1.000,1.000,1.000,-90.00,180.00,0.00,OPEN,0
672231.809,0,0,0,1.000,1.000,1.000,-90.00,180.00,0.00,OPEN,0
672231.813,0,0,0,1.000,1.000,1.000,-90.00,180.00,0.00,OPEN,0
672231.817,0,0,0,1.000,1.000,1.000,-90.00,180.00,0.00,OPEN,0
672231.821,0,0,0,1.000,1.000,1.000,-90.00,180.00,0.00,OPEN,0
672231.824,0,0,0,1.000,1.000,1.000,-90.00,180.00,0.00,OPEN,0
672231.828,0,0,0,1.000,1.000,1.000,-90.00,180.00,0.00,OPEN,0
672231.832,0,0,0,1.000,1.000,1.000,-90.00,180.00,0.00,OPEN,0
672231.837,0,0,0,1.000,1.000,1.000,-90.00,180.00,0.00,OPEN,0
672231.843,0,0,0,1.000,1.000,1.000,-90.00,180.00,0.00,OPEN,0
672231.848,0,0,0,1.000,1.000,1.000,-90.00,180.00,0.00,OPEN,0
672231.853,0,0,0,1.000,1.000,1.000,-90.00,180.00,0.00,OPEN,0
672231.858,0,0,0,1.000,1.000,1.000,-90.00,180.00,0.00,OPEN,0
672231.863,0,0,0,1.000,1.000,1.000,-90.00,180.00,0.00,OPEN,0
672231.869,0,0,0,1.000,1.000,1.000,-90.00,180.00,0.00,OPEN,0
672231.873,0,0,0,1.000,1.000,1.000,-90.00,180.00,0.00,OPEN,0
672231.877,0,0,0,1.000,1.000,1.000,-90.00,180.00,0.00,OPEN,0
672231.881,0,0,0,1.000,1.000,1.000,-90.00,180.00,0.00,OPEN,0
672231.884,0,0,0,1.000,1.000,1.000,-90.00,180.00,0.00,OPEN,0
672231.888,0,0,0,1.000,1.000,1.000,-90.00,180.00,0.00,OPEN,0
672231.892,0,0,0,1.000,1.000,1.000,-90.00,180.00,0.00,OPEN,0
672231.895,0,0,0,1.000,1.000,1.000,-90.00,180.00,0.00,OPEN,0
672231.899,0,0,0,1.000,1.000,1.000,-90.00,180.00,0.00,OPEN,0
672231.903,0,0,0,1.000,1.000,1.000,-90.00,180.00,0.00,OPEN,0
672231.907,0,0,0,1.000,1.000,1.000,-90.00,180.00,0.00,OPEN,0
672231.911,0,0,0,1.000,1.000,1.000,-90.00,180.00,0.00,OPEN,0
672231.917,0,0,0,1.000,1.000,1.000,-90.00,180.00,0.00,OPEN,0
672231.922,0,0,0,1.000,1.000,1.000,-90.00,180.00,0.00,OPEN,0
672231.926,0,0,0,1.000,1.000,1.000,-90.00,180.00,0.00,OPEN,0
672231.931,0,0,0,1.000,1.000,1.000,-90.00,180.00,0.00,OPEN,0
672231.935,0,0,0,1.000,1.000,1.000,-90.00,180.00,0.00,OPEN,0
672231.939,0,0,0,1.000,1.000,1.000,-90.00,180.00,0.00,OPEN,0
672231.943,0,0,0,1.000,1.000,1.000,-90.00,180.00,0.00,OPEN,0
672231.947,0,0,0,1.000,1.000,1.000,-90.00,180.00,0.00,OPEN,0
672231.951,0,0,0,1.000,1.000,1.000,-90.00,180.00,0.00,OPEN,0
672231.955,0,0,0,1.000,1.000,1.000,-90.00,180.00,0.00,OPEN,0
672231.958,0,0,0,1.000,1.000,1.000,-90.00,180.00,0.00,OPEN,0
672231.963,0,0,0,1.000,1.000,1.000,-90.00,180.00,0.00,OPEN,0
672231.967,0,0,0,1.000,1.000,1.000,-90.00,180.00,0.00,OPEN,0
672231.972,0,0,0,1.000,1.000,1.000,-90.00,180.00,0.00,OPEN,0
672231.977,0,0,0,1.000,1.000,1.000,-90.00,180.00,0.00,OPEN,0
672231.984,0,0,0,1.000,1.000,1.000,-90.00,180.00,0.00,OPEN,0
672231.992,0,0,0,1.000,1.000,1.000,-90.00,180.00,0.00,OPEN,0
672231.999,0,0,0,1.000,1.000,1.000,-90.00,180.00,0.00,OPEN,0
672232.006,0,0,0,1.000,1.000,1.000,-90.00,180.00,0.00,OPEN,0
672232.012,0,0,0,1.000,1.000,1.000,-90.00,180.00,0.00,OPEN,0
672232.017,0,0,0,1.000,1.000,1.000,-90.00,180.00,0.00,OPEN,0
672232.022,0,0,0,1.000,1.000,1.000,-90.00,180.00,0.00,OPEN,0
672232.027,0,0,0,1.000,1.000,1.000,-90.00,180.00,0.00,OPEN,0
672232.031,0,0,0,1.000,1.000,1.000,-90.00,180.00,0.00,OPEN,0
672232.036,0,0,0,1.000,1.000,1.000,-90.00,180.00,0.00,OPEN,0
672232.040,0,0,0,1.000,1.000,1.000,-90.00,180.00,0.00,OPEN,0
672232.044,0,0,0,1.000,1.000,1.000,-90.00,180.00,0.00,OPEN,0
672232.047,0,0,0,1.000,1.000,1.000,-90.00,180.00,0.00,OPEN,0
672232.050,0,0,0,1.000,1.000,1.000,-90.00,180.00,0.00,OPEN,0
672232.055,0,0,0,1.000,1.000,1.000,-90.00,180.00,0.00,OPEN,0
672232.058,0,0,0,1.000,1.000,1.000,-90.00,180.00,0.00,OPEN,0
672232.064,0,0,0,1.000,1.000,1.000,-90.00,180.00,0.00,OPEN,0
672232.072,0,0,0,1.000,1.000,1.000,-90.00,180.00,0.00,OPEN,0
672232.079,0,0,0,1.000,1.000,1.000,-90.00,180.00,0.00,OPEN,0
672232.085,0,0,0,1.000,1.000,1.000,-90.00,180.00,0.00,OPEN,0
672232.091,0,0,0,1.000,1.000,1.000,-90.00,180.00,0.00,OPEN,0
672232.096,0,0,0,1.000,1.000,1.000,-90.00,180.00,0.00,OPEN,0
672232.103,0,0,0,1.000,1.000,1.000,-90.00,180.00,0.00,OPEN,0
672232.108,0,0,0,1.000,1.000,1.000,-90.00,180.00,0.00,OPEN,0
672232.113,0,0,0,1.000,1.000,1.000,-90.00,180.00,0.00,OPEN,0
672232.117,0,0,0,0.999,1.000,1.000,-90.00,180.00,0.00,OPEN,0
672232.120,0,0,0,0.866,1.000,1.000,-90.00,180.00,0.00,OPEN,0
672232.124,0,0,0,0.663,1.000,1.000,-90.00,180.00,0.00,OPEN,0
672232.127,0,0,0,0.938,1.000,1.000,-90.00,180.00,0.00,OPEN,0
672232.131,0,0,0,0.994,1.000,1.000,-90.00,180.00,0.00,OPEN,0
672232.134,0,0,0,0.999,1.000,1.000,-90.00,180.00,0.00,OPEN,0
672232.138,0,0,0,1.000,1.000,1.000,-90.00,180.00,0.00,OPEN,0
672232.143,0,0,0,1.000,1.000,1.000,-90.00,180.00,0.00,OPEN,0
672232.148,0,0,0,1.000,1.000,1.000,-90.00,180.00,0.00,OPEN,0
672232.154,0,0,0,1.000,1.000,1.000,-90.00,180.00,0.00,OPEN,0
672232.159,2,0,0,1.000,1.000,1.000,-90.00,180.00,-4.50,OPEN,1
672232.164,2,0,0,1.000,1.000,1.000,-90.00,180.00,-4.50,OPEN,0
672232.168,2,0,0,1.000,1.000,1.000,-90.00,180.00,-4.50,OPEN,0
672232.172,2,0,0,1.000,1.000,1.000,-90.00,180.00,-4.50,OPEN,0
672232.176,2,0,0,1.000,1.000,1.000,-90.00,180.00,-4.50,OPEN,0
672232.179,2,0,0,1.000,1.000,1.000,-90.00,180.00,-4.50,OPEN,0
672232.183,2,0,0,1.000,1.000,1.000,-90.00,180.00,-4.50,OPEN,0
672232.187,2,0,0,1.000,1.000,1.000,-90.00,180.00,-4.50,OPEN,0
672232.191,2,0,0,1.000,1.000,1.000,-90.00,180.00,-4.50,OPEN,0
672232.195,2,0,0,1.000,1.000,1.000,-90.00,180.00,-4.50,OPEN,0
672232.198,2,0,0,1.000,1.000,1.000,-90.00,180.00,-4.50,OPEN,0
672232.202,2,0,0,1.000,1.000,1.000,-90.00,180.00,-4.50,OPEN,0
672232.206,2,0,0,1.000,1.000,1.000,-90.00,180.00,-4.50,OPEN,0
672232.210,2,0,0,1.000,1.000,1.000,-90.00,180.00,-4.50,OPEN,0
672232.214,2,0,0,1.000,1.000,1.000,-90.00,180.00,-4.50,OPEN,0
672232.218,2,0,0,1.000,1.000,1.000,-90.00,180.00,-4.50,OPEN,0
672232.221,2,0,0,1.000,1.000,1.000,-90.00,180.00,-4.50,OPEN,0
672232.225,2,0,0,1.000,1.000,1.000,-90.00,180.00,-4.50,OPEN,0
672232.228,2,0,0,1.000,1.000,1.000,-90.00,180.00,-4.50,OPEN,0
672232.232,2,0,0,1.000,1.000,1.000,-90.00,180.00,-4.50,OPEN,0
672232.235,2,0,0,1.000,1.000,1.000,-90.00,180.00,-4.50,OPEN,0
672232.240,2,0,0,1.000,1.000,1.000,-90.00,180.00,-4.50,OPEN,0
672232.245,2,0,0,1.000,1.000,1.000,-90.00,180.00,-4.50,OPEN,0
672232.250,2,0,0,1.000,1.000,1.000,-90.00,180.00,-4.50,OPEN,0
672232.256,2,0,0,1.000,1.000,1.000,-90.00,180.00,-4.50,OPEN,0
672232.261,2,0,0,1.000,1.000,1.000,-90.00,180.00,-9.00,OPEN,1
672232.266,2,0,0,1.000,1.000,1.000,-90.00,180.00,-9.00,OPEN,0
672232.271,2,0,0,1.000,1.000,1.000,-90.00,180.00,-9.00,OPEN,0
672232.276,2,0,0,1.000,1.000,1.000,-90.00,180.00,-9.00,OPEN,0
672232.280,2,0,0,1.000,1.000,1.000,-90.00,180.00,-9.00,OPEN,0
672232.286,2,0,0,1.000,1.000,1.000,-90.00,180.00,-9.00,OPEN,0
672232.291,2,0,0,1.000,1.000,1.000,-90.00,180.00,-9.00,OPEN,0
672232.295,2,0,0,1.000,1.000,1.000,-90.00,180.00,-9.00,OPEN,0
672232.300,2,0,0,1.000,1.000,1.000,-90.00,180.00,-9.00,OPEN,0
672232.304,2,0,0,1.000,1.000,1.000,-90.00,180.00,-9.00,OPEN,0
672232.307,2,0,0,1.000,1.000,1.000,-90.00,180.00,-9.00,OPEN,0
672232.311,2,0,0,1.000,1.000,1.000,-90.00,180.00,-9.00,OPEN,0
672232.315,2,0,0,1.000,1.000,1.000,-90.00,180.00,-9.00,OPEN,0
672232.318,2,0,0,1.000,1.000,1.000,-90.00,180.00,-9.00,OPEN,0
672232.322,2,0,0,1.000,1.000,1.000,-90.00,180.00,-9.00,OPEN,0
672232.327,2,0,0,1.000,1.000,1.000,-90.00,180.00,-9.00,OPEN,0
672232.335,2,0,0,1.000,1.000,1.000,-90.00,180.00,-9.00,OPEN,0
672232.342,2,0,0,1.000,1.000,1.000,-90.00,180.00,-9.00,OPEN,0
672232.349,2,0,0,1.000,1.000,1.000,-90.00,180.00,-9.00,OPEN,0
672232.357,2,0,0,1.000,1.000,1.000,-90.00,180.00,-9.00,OPEN,0
672232.364,2,0,0,1.000,1.000,1.000,-90.00,180.00,-13.50,OPEN,1
672232.371,2,0,0,1.000,1.000,1.000,-90.00,180.00,-13.50,OPEN,0
672232.376,2,0,0,1.000,1.000,1.000,-90.00,180.00,-13.50,OPEN,0
672232.381,2,0,0,1.000,1.000,1.000,-90.00,180.00,-13.50,OPEN,0
672232.387,2,0,0,1.000,1.000,1.000,-90.00,180.00,-13.50,OPEN,0
672232.392,2,0,0,1.000,1.000,1.000,-90.00,180.00,-13.50,OPEN,0
672232.396,2,0,0,1.000,1.000,1.000,-90.00,180.00,-13.50,OPEN,0
672232.400,2,0,0,1.000,1.000,1.000,-90.00,180.00,-13.50,OPEN,0
672232.404,2,0,0,1.000,1.000,1.000,-90.00,180.00,-13.50,OPEN,0
672232.407,2,0,0,1.000,1.000,1.000,-90.00,180.00,-13.50,OPEN,0
672232.411,2,0,0,1.000,1.000,1.000,-90.00,180.00,-13.50,OPEN,0
672232.417,2,0,0,1.000,1.000,1.000,-90.00,180.00,-13.50,OPEN,0
672232.420,2,0,0,1.000,1.000,1.000,-90.00,180.00,-13.50,OPEN,0
672232.424,2,0,0,1.000,1.000,1.000,-90.00,180.00,-13.50,OPEN,0
672232.428,2,0,0,1.000,1.000,1.000,-90.00,180.00,-13.50,OPEN,0
672232.432,2,0,0,1.000,1.000,1.000,-90.00,180.00,-13.50,OPEN,0
672232.435,2,0,0,1.000,1.000,1.000,-90.00,180.00,-13.50,OPEN,0
672232.439,2,0,0,1.000,1.000,1.000,-90.00,180.00,-13.50,OPEN,0
672232.443,2,0,0,1.000,1.000,1.000,-90.00,180.00,-13.50,OPEN,0
672232.446,2,0,0,1.000,1.000,1.000,-90.00,180.00,-13.50,OPEN,0
672232.450,2,0,0,1.000,1.000,1.000,-90.00,180.00,-13.50,OPEN,0
672232.453,2,0,0,1.000,1.000,1.000,-90.00,180.00,-13.50,OPEN,0
672232.457,2,0,0,1.000,1.000,1.000,-90.00,180.00,-13.50,OPEN,0
672232.461,2,0,0,1.000,1.000,1.000,-90.00,180.00,-13.50,OPEN,0
672232.465,2,0,0,1.000,1.000,1.000,-90.00,180.00,-18.00,OPEN,1
672232.468,2,0,0,1.000,1.000,1.000,-90.00,180.00,-18.00,OPEN,0
672232.472,2,0,0,1.000,1.000,1.000,-90.00,180.00,-18.00,OPEN,0
672232.476,2,0,0,1.000,1.000,1.000,-90.00,180.00,-18.00,OPEN,0
672232.479,2,0,0,1.000,1.000,1.000,-90.00,180.00,-18.00,OPEN,0
672232.483,2,0,0,1.000,1.000,1.000,-90.00,180.00,-18.00,OPEN,0
672232.486,2,0,0,1.000,1.000,1.000,-90.00,180.00,-18.00,OPEN,0
672232.490,2,0,0,1.000,1.000,1.000,-90.00,180.00,-18.00,OPEN,0
672232.493,2,0,0,1.000,1.000,1.000,-90.00,180.00,-18.00,OPEN,0
672232.497,2,0,0,1.000,1.000,1.000,-90.00,180.00,-18.00,OPEN,0
672232.501,2,0,0,1.000,1.000,1.000,-90.00,180.00,-18.00,OPEN,0
672232.505,2,0,0,1.000,1.000,1.000,-90.00,180.00,-18.00,OPEN,0
672232.508,2,0,0,1.000,1.000,1.000,-90.00,180.00,-18.00,OPEN,0
672232.512,2,0,0,1.000,1.000,1.000,-90.00,180.00,-18.00,OPEN,0
672232.516,2,0,0,1.000,1.000,1.000,-90.00,180.00,-18.00,OPEN,0
672232.520,2,0,0,1.000,1.000,1.000,-90.00,180.00,-18.00,OPEN,0
672232.523,2,0,0,1.000,1.000,1.000,-90.00,180.00,-18.00,OPEN,0
672232.527,2,0,0,1.000,1.000,1.000,-90.00,180.00,-18.00,OPEN,0
672232.531,2,0,0,1.000,1.000,1.000,-90.00,180.00,-18.00,OPEN,0
672232.537,2,0,0,1.000,1.000,1.000,-90.00,180.00,-18.00,OPEN,0
672232.543,2,0,0,1.000,1.000,1.000,-90.00,180.00,-18.00,OPEN,0
672232.548,2,0,0,1.000,1.000,1.000,-90.00,180.00,-18.00,OPEN,0
672232.552,2,0,0,1.000,1.000,1.000,-90.00,180.00,-18.00,OPEN,0
672232.556,2,0,0,1.000,1.000,1.000,-90.00,180.00,-18.00,OPEN,0
672232.559,2,0,0,1.000,1.000,1.000,-90.00,180.00,-18.00,OPEN,0
672232.563,2,0,0,1.000,1.000,1.000,-90.00,180.00,-18.00,OPEN,0
672232.567,2,0,0,1.000,1.000,1.000,-90.00,180.00,-22.50,OPEN,1
672232.571,2,0,0,1.000,1.000,1.000,-90.00,180.00,-22.50,OPEN,0
672232.575,2,0,0,1.000,1.000,1.000,-90.00,180.00,-22.50,OPEN,0
672232.578,2,0,0,1.000,1.000,1.000,-90.00,180.00,-22.50,OPEN,0
672232.582,2,0,0,1.000,1.000,1.000,-90.00,180.00,-22.50,OPEN,0
672232.585,2,0,0,1.000,1.000,1.000,-90.00,180.00,-22.50,OPEN,0
672232.589,2,0,0,1.000,1.000,1.000,-90.00,180.00,-22.50,OPEN,0
672232.593,2,0,0,1.000,1.000,1.000,-90.00,180.00,-22.50,OPEN,0
672232.596,2,0,0,1.000,1.000,1.000,-90.00,180.00,-22.50,OPEN,0
672232.600,2,0,0,1.000,1.000,1.000,-90.00,180.00,-22.50,OPEN,0
672232.605,2,0,0,1.000,1.000,1.000,-90.00,180.00,-22.50,OPEN,0
672232.609,2,0,0,1.000,1.000,1.000,-90.00,180.00,-22.50,OPEN,0
672232.614,2,0,0,1.000,1.000,1.000,-90.00,180.00,-22.50,OPEN,0
672232.618,2,0,0,1.000,1.000,1.000,-90.00,180.00,-22.50,OPEN,0
672232.622,2,0,0,1.000,1.000,1.000,-90.00,180.00,-22.50,OPEN,0
672232.625,2,0,0,1.000,1.000,1.000,-90.00,180.00,-22.50,OPEN,0
672232.629,2,0,0,1.000,1.000,1.000,-90.00,180.00,-22.50,OPEN,0
672232.632,2,0,0,1.000,1.000,1.000,-90.00,180.00,-22.50,OPEN,0
672232.636,2,0,0,1.000,1.000,1.000,-90.00,180.00,-22.50,OPEN,0
672232.640,2,0,0,1.000,1.000,1.000,-90.00,180.00,-22.50,OPEN,0
672232.644,2,0,0,1.000,1.000,1.000,-90.00,180.00,-22.50,OPEN,0
672232.647,2,0,0,0.999,1.000,1.000,-90.00,180.00,-22.50,OPEN,0
672232.651,2,0,0,0.968,1.000,1.000,-90.00,180.00,-22.50,OPEN,0
672232.655,2,0,0,0.730,1.000,1.000,-90.00,180.00,-22.50,OPEN,0
672232.660,2,0,0,0.954,1.000,1.000,-90.00,180.00,-22.50,OPEN,0
672232.663,2,0,0,0.989,1.000,1.000,-90.00,180.00,-22.50,OPEN,0
672232.668,2,0,0,0.992,1.000,1.000,-90.00,180.00,-27.00,OPEN,1
672232.672,2,0,0,0.988,1.000,1.000,-90.00,180.00,-27.00,OPEN,0
672232.675,2,0,0,0.986,1.000,1.000,-90.00,180.00,-27.00,OPEN,0
672232.679,2,0,0,0.980,1.000,1.000,-90.00,180.00,-27.00,OPEN,0
672232.683,2,0,0,0.875,1.000,1.000,-90.00,180.00,-27.00,OPEN,0
672232.687,2,0,0,0.922,1.000,1.000,-90.00,180.00,-27.00,OPEN,0
672232.690,2,0,0,1.000,1.000,1.000,-90.00,180.00,-27.00,OPEN,0
672232.694,2,0,0,1.000,1.000,1.000,-90.00,180.00,-27.00,OPEN,0
672232.698,2,0,0,1.000,1.000,1.000,-90.00,180.00,-27.00,OPEN,0
672232.702,2,0,0,1.000,1.000,1.000,-90.00,180.00,-27.00,OPEN,0
672232.706,2,0,0,1.000,1.000,1.000,-90.00,180.00,-27.00,OPEN,0
672232.710,2,0,0,1.000,1.000,1.000,-90.00,180.00,-27.00,OPEN,0
672232.715,0,0,0,1.000,1.000,1.000,-90.00,180.00,-27.00,OPEN,0
672232.719,0,0,0,1.000,1.000,1.000,-90.00,180.00,-27.00,OPEN,0
672232.723,0,0,0,1.000,1.000,1.000,-90.00,180.00,-27.00,OPEN,0
672232.727,0,0,0,1.000,1.000,1.000,-90.00,180.00,-27.00,OPEN,0
672232.731,0,0,0,1.000,1.000,1.000,-90.00,180.00,-27.00,OPEN,0
672232.734,0,0,0,1.000,1.000,1.000,-90.00,180.00,-27.00,OPEN,0
672232.738,0,0,0,1.000,1.000,1.000,-90.00,180.00,-27.00,OPEN,0
672232.742,0,0,0,1.000,1.000,1.000,-90.00,180.00,-27.00,OPEN,0
672232.746,0,0,0,1.000,1.000,1.000,-90.00,180.00,-27.00,OPEN,0
672232.752,0,0,0,1.000,1.000,1.000,-90.00,180.00,-27.00,OPEN,0
672232.756,0,0,0,1.000,1.000,1.000,-90.00,180.00,-27.00,OPEN,0
672232.760,0,0,0,1.000,1.000,1.000,-90.00,180.00,-27.00,OPEN,0
672232.764,0,0,0,1.000,1.000,1.000,-90.00,180.00,-27.00,OPEN,0
672232.768,0,0,0,1.000,1.000,1.000,-90.00,180.00,-27.00,OPEN,0
672232.772,0,0,0,1.000,1.000,1.000,-90.00,180.00,-27.00,OPEN,0
672232.776,0,0,0,1.000,1.000,1.000,-90.00,180.00,-27.00,OPEN,0
672232.779,0,0,0,1.000,1.000,1.000,-90.00,180.00,-27.00,OPEN,0
672232.783,0,0,0,1.000,1.000,1.000,-90.00,180.00,-27.00,OPEN,0
672232.786,0,0,0,1.000,1.000,1.000,-90.00,180.00,-27.00,OPEN,0
672232.790,0,0,0,1.000,1.000,1.000,-90.00,180.00,-27.00,OPEN,0
672232.794,0,0,0,1.000,1.000,1.000,-90.00,180.00,-27.00,OPEN,0
672232.797,0,0,0,1.000,1.000,1.000,-90.00,180.00,-27.00,OPEN,0
672232.801,0,0,0,1.000,1.000,1.000,-90.00,180.00,-27.00,OPEN,0
672232.805,0,0,0,1.000,1.000,1.000,-90.00,180.00,-27.00,OPEN,0
672232.808,0,0,0,1.000,1.000,1.000,-90.00,180.00,-27.00,OPEN,0
672232.812,0,0,0,1.000,1.000,1.000,-90.00,180.00,-27.00,OPEN,0
672232.817,0,0,0,1.000,1.000,1.000,-90.00,180.00,-27.00,OPEN,0
672232.821,0,0,0,1.000,1.000,1.000,-90.00,180.00,-27.00,OPEN,0
672232.825,0,0,0,1.000,1.000,1.000,-90.00,180.00,-27.00,OPEN,0
672232.829,0,0,0,1.000,1.000,1.000,-90.00,180.00,-27.00,OPEN,0
672232.832,0,0,0,1.000,1.000,1.000,-90.00,180.00,-27.00,OPEN,0
672232.836,0,0,0,1.000,1.000,1.000,-90.00,180.00,-27.00,OPEN,0
672232.841,0,0,0,1.000,1.000,1.000,-90.00,180.00,-27.00,OPEN,0
672232.845,0,0,0,1.000,1.000,1.000,-90.00,180.00,-27.00,OPEN,0
672232.849,0,0,0,1.000,1.000,1.000,-90.00,180.00,-27.00,OPEN,0
672232.852,0,0,0,1.000,1.000,1.000,-90.00,180.00,-27.00,OPEN,0
672232.857,0,0,0,1.000,1.000,1.000,-90.00,180.00,-27.00,OPEN,0
672232.861,0,0,0,1.000,1.000,1.000,-90.00,180.00,-27.00,OPEN,0
672232.865,0,0,0,1.000,1.000,1.000,-90.00,180.00,-27.00,OPEN,0
672232.869,0,0,0,1.000,1.000,1.000,-90.00,180.00,-27.00,OPEN,0
672232.873,0,0,0,1.000,1.000,1.000,-90.00,180.00,-27.00,OPEN,0
672232.876,0,0,0,1.000,1.000,1.000,-90.00,180.00,-27.00,OPEN,0
672232.880,0,0,0,1.000,1.000,1.000,-90.00,180.00,-27.00,OPEN,0
672232.885,0,0,0,1.000,1.000,1.000,-90.00,180.00,-27.00,OPEN,0
672232.892,0,0,0,1.000,1.000,1.000,-90.00,180.00,-27.00,OPEN,0
672232.896,0,0,0,1.000,1.000,1.000,-90.00,180.00,-27.00,OPEN,0
672232.899,0,0,0,1.000,1.000,1.000,-90.00,180.00,-27.00,OPEN,0
672232.903,0,0,0,1.000,1.000,1.000,-90.00,180.00,-27.00,OPEN,0
672232.907,0,0,0,1.000,1.000,1.000,-90.00,180.00,-27.00,OPEN,0
672232.911,0,0,0,1.000,1.000,1.000,-90.00,180.00,-27.00,OPEN,0
672232.914,0,0,0,1.000,1.000,1.000,-90.00,180.00,-27.00,OPEN,0
672232.919,0,0,0,1.000,1.000,1.000,-90.00,180.00,-27.00,OPEN,0
672232.923,0,0,0,1.000,1.000,1.000,-90.00,180.00,-27.00,OPEN,0
672232.927,0,0,0,1.000,1.000,1.000,-90.00,180.00,-27.00,OPEN,0
672232.930,0,0,0,1.000,1.000,1.000,-90.00,180.00,-27.00,OPEN,0
672232.934,0,0,0,1.000,1.000,1.000,-90.00,180.00,-27.00,OPEN,0
672232.937,0,0,0,1.000,1.000,1.000,-90.00,180.00,-27.00,OPEN,0
672232.941,0,0,0,1.000,1.000,1.000,-90.00,180.00,-27.00,OPEN,0
672232.945,0,0,0,1.000,1.000,1.000,-90.00,180.00,-27.00,OPEN,0
672232.949,0,0,0,1.000,1.000,1.000,-90.00,180.00,-27.00,OPEN,0
672232.953,0,0,0,1.000,1.000,1.000,-90.00,180.00,-27.00,OPEN,0
672232.956,0,0,0,1.000,1.000,1.000,-90.00,180.00,-27.00,OPEN,0
672232.960,0,0,0,1.000,1.000,1.000,-90.00,180.00,-27.00,OPEN,0
672232.964,0,0,0,1.000,1.000,1.000,-90.00,180.00,-27.00,OPEN,0
672232.967,0,0,0,1.000,1.000,1.000,-90.00,180.00,-27.00,OPEN,0
672232.971,0,0,0,1.000,1.000,1.000,-90.00,180.00,-27.00,OPEN,0
672232.975,0,0,0,1.000,1.000,1.000,-90.00,180.00,-27.00,OPEN,0
672232.978,0,0,0,1.000,1.000,1.000,-90.00,180.00,-27.00,OPEN,0
672232.982,0,0,0,1.000,1.000,1.000,-90.00,180.00,-27.00,OPEN,0
672232.986,0,0,0,1.000,1.000,1.000,-90.00,180.00,-27.00,OPEN,0
672232.989,0,0,0,1.000,1.000,1.000,-90.00,180.00,-27.00,OPEN,0
672232.993,0,0,0,1.000,1.000,1.000,-90.00,180.00,-27.00,OPEN,0
672232.997,0,0,0,1.000,1.000,1.000,-90.00,180.00,-27.00,OPEN,0
672233.001,0,0,0,1.000,1.000,1.000,-90.00,180.00,-27.00,OPEN,0
672233.005,0,0,0,1.000,1.000,1.000,-90.00,180.00,-27.00,OPEN,0
672233.010,0,0,0,1.000,1.000,1.000,-90.00,180.00,-27.00,OPEN,0
672233.014,0,0,0,1.000,1.000,1.000,-90.00,180.00,-27.00,OPEN,0
672233.018,0,0,0,1.000,1.000,1.000,-90.00,180.00,-27.00,OPEN,0
672233.022,0,0,0,1.000,1.000,1.000,-90.00,180.00,-27.00,OPEN,0
672233.026,0,0,0,1.000,1.000,1.000,-90.00,180.00,-27.00,OPEN,0
672233.030,0,0,0,1.000,1.000,1.000,-90.00,180.00,-27.00,OPEN,0
672233.034,0,0,0,1.000,1.000,1.000,-90.00,180.00,-27.00,OPEN,0
672233.037,0,0,0,1.000,1.000,1.000,-90.00,180.00,-27.00,OPEN,0
672233.041,0,0,0,1.000,1.000,1.000,-90.00,180.00,-27.00,OPEN,0
672233.045,0,0,0,1.000,1.000,1.000,-90.00,180.00,-27.00,OPEN,0
672233.049,0,0,0,1.000,1.000,1.000,-90.00,180.00,-27.00,OPEN,0
672233.053,0,0,0,1.000,1.000,1.000,-90.00,180.00,-27.00,OPEN,0
672233.056,0,0,0,1.000,1.000,1.000,-90.00,180.00,-27.00,OPEN,0
672233.060,0,0,0,1.000,1.000,1.000,-90.00,180.00,-27.00,OPEN,0
672233.065,0,0,0,1.000,1.000,1.000,-90.00,180.00,-27.00,OPEN,0
672233.068,0,0,0,1.000,1.000,1.000,-90.00,180.00,-27.00,OPEN,0
672233.073,0,0,0,1.000,1.000,1.000,-90.00,180.00,-27.00,OPEN,0
672233.076,0,0,0,1.000,1.000,1.000,-90.00,180.00,-27.00,OPEN,0
672233.080,0,0,0,1.000,1.000,1.000,-90.00,180.00,-27.00,OPEN,0
672233.084,0,0,0,1.000,1.000,1.000,-90.00,180.00,-27.00,OPEN,0
672233.088,0,0,0,1.000,1.000,1.000,-90.00,180.00,-27.00,OPEN,0
672233.093,0,0,0,1.000,1.000,1.000,-90.00,180.00,-27.00,OPEN,0
672233.097,0,0,0,1.000,1.000,1.000,-90.00,180.00,-27.00,OPEN,0
672233.102,0,0,0,1.000,1.000,1.000,-90.00,180.00,-27.00,OPEN,0
672233.106,0,0,0,1.000,1.000,1.000,-90.00,180.00,-27.00,OPEN,0
672233.110,0,0,0,1.000,1.000,1.000,-90.00,180.00,-27.00,OPEN,0
672233.114,0,0,0,1.000,1.000,1.000,-90.00,180.00,-27.00,OPEN,0
672233.118,0,0,0,1.000,1.000,1.000,-90.00,180.00,-27.00,OPEN,0
672233.122,0,0,0,1.000,1.000,1.000,-90.00,180.00,-27.00,OPEN,0
672233.126,0,0,0,1.000,1.000,1.000,-90.00,180.00,-27.00,OPEN,0
672233.129,0,0,0,1.000,1.000,1.000,-90.00,180.00,-27.00,OPEN,0
672233.133,0,0,0,1.000,1.000,1.000,-90.00,180.00,-27.00,OPEN,0
672233.137,0,0,0,1.000,1.000,1.000,-90.00,180.00,-27.00,OPEN,0
672233.140,0,0,0,1.000,1.000,1.000,-90.00,180.00,-27.00,OPEN,0
672233.144,0,0,0,1.000,1.000,1.000,-90.00,180.00,-27.00,OPEN,0
672233.148,0,0,0,1.000,1.000,1.000,-90.00,180.00,-27.00,OPEN,0
672233.152,0,0,0,1.000,1.000,1.000,-90.00,180.00,-27.00,OPEN,0
672233.156,0,0,0,1.000,1.000,1.000,-90.00,180.00,-27.00,OPEN,0
672233.160,0,0,0,1.000,1.000,1.000,-90.00,180.00,-27.00,OPEN,0
672233.164,0,0,0,1.000,1.000,1.000,-90.00,180.00,-27.00,OPEN,0
672233.167,0,0,0,1.000,1.000,1.000,-90.00,180.00,-27.00,OPEN,0
672233.171,0,0,0,1.000,1.000,1.000,-90.00,180.00,-27.00,OPEN,0
672233.175,0,0,0,1.000,1.000,1.000,-90.00,180.00,-27.00,OPEN,0
672233.179,0,0,0,1.000,1.000,1.000,-90.00,180.00,-27.00,OPEN,0
672233.184,0,0,0,1.000,1.000,1.000,-90.00,180.00,-27.00,OPEN,0
672233.188,0,0,0,1.000,1.000,1.000,-90.00,180.00,-27.00,OPEN,0
672233.192,0,0,0,1.000,1.000,1.000,-90.00,180.00,-27.00,OPEN,0
672233.196,0,0,0,1.000,1.000,1.000,-90.00,180.00,-27.00,OPEN,0
672233.202,0,0,0,1.000,1.000,1.000,-90.00,180.00,-27.00,OPEN,0
672233.207,0,0,0,1.000,1.000,1.000,-90.00,180.00,-27.00,OPEN,0
672233.212,0,0,0,1.000,1.000,1.000,-90.00,180.00,-27.00,OPEN,0
672233.215,0,0,0,1.000,1.000,1.000,-90.00,180.00,-27.00,OPEN,0
672233.219,0,0,0,1.000,1.000,1.000,-90.00,180.00,-27.00,OPEN,0
672233.223,0,0,0,1.000,1.000,1.000,-90.00,180.00,-27.00,OPEN,0
672233.227,0,0,0,1.000,1.000,1.000,-90.00,180.00,-27.00,OPEN,0
672233.231,0,0,0,1.000,1.000,1.000,-90.00,180.00,-27.00,OPEN,0
672233.235,0,0,0,0.768,1.000,1.000,-90.00,180.00,-27.00,OPEN,0
672233.240,0,0,0,0.955,1.000,1.000,-90.00,180.00,-27.00,OPEN,0
672233.244,0,0,0,0.990,1.000,1.000,-90.00,180.00,-27.00,OPEN,0
672233.248,0,0,0,0.998,1.000,1.000,-90.00,180.00,-27.00,OPEN,0
672233.251,0,0,0,0.999,1.000,1.000,-90.00,180.00,-27.00,OPEN,0
672233.256,0,0,0,1.000,1.000,1.000,-90.00,180.00,-27.00,OPEN,0
672233.260,0,0,0,1.000,1.000,1.000,-90.00,180.00,-27.00,OPEN,0
672233.264,0,0,0,1.000,1.000,1.000,-90.00,180.00,-27.00,OPEN,0
672233.269,0,0,0,1.000,1.000,1.000,-90.00,180.00,-27.00,OPEN,0
672233.275,0,0,0,1.000,1.000,1.000,-90.00,180.00,-27.00,OPEN,0
672233.279,0,0,0,1.000,1.000,1.000,-90.00,180.00,-27.00,OPEN,0
672233.283,0,0,0,1.000,1.000,1.000,-90.00,180.00,-27.00,OPEN,0
672233.288,0,0,0,1.000,1.000,1.000,-90.00,180.00,-27.00,OPEN,0
672233.294,0,0,0,1.000,1.000,1.000,-90.00,180.00,-27.00,OPEN,0
672233.298,0,0,0,1.000,1.000,1.000,-90.00,180.00,-27.00,OPEN,0
672233.301,0,0,0,1.000,1.000,1.000,-90.00,180.00,-27.00,OPEN,0
672233.307,0,0,0,1.000,1.000,1.000,-90.00,180.00,-27.00,OPEN,0
672233.311,0,0,0,1.000,1.000,1.000,-90.00,180.00,-27.00,OPEN,0
672233.315,0,0,0,1.000,1.000,1.000,-90.00,180.00,-27.00,OPEN,0
672233.319,3,0,0,1.000,1.000,1.000,-90.00,180.00,-27.00,CLOSED,0
672233.322,3,0,0,1.000,1.000,1.000,-90.00,180.00,-27.00,CLOSED,0
672233.326,3,0,0,1.000,1.000,1.000,-90.00,180.00,-27.00,CLOSED,0
672233.329,3,0,0,1.000,1.000,1.000,-90.00,180.00,-27.00,CLOSED,0
672233.333,3,0,0,1.000,1.000,1.000,-90.00,180.00,-27.00,CLOSED,0
672233.337,3,0,0,1.000,1.000,1.000,-90.00,180.00,-27.00,CLOSED,0
672233.342,3,0,0,1.000,1.000,1.000,-90.00,180.00,-27.00,CLOSED,0
672233.345,3,0,0,1.000,1.000,1.000,-90.00,180.00,-27.00,CLOSED,0
672233.349,3,0,0,1.000,1.000,1.000,-90.00,180.00,-27.00,CLOSED,0
672233.353,3,0,0,1.000,1.000,1.000,-90.00,180.00,-27.00,CLOSED,0
672233.357,3,0,0,1.000,1.000,1.000,-90.00,180.00,-27.00,CLOSED,0
672233.361,3,0,0,1.000,1.000,1.000,-90.00,180.00,-27.00,CLOSED,0
672233.365,3,0,0,1.000,1.000,1.000,-90.00,180.00,-27.00,CLOSED,0
672233.370,3,0,0,1.000,1.000,1.000,-90.00,180.00,-27.00,CLOSED,0
672233.374,3,0,0,1.000,1.000,1.000,-90.00,180.00,-27.00,CLOSED,0
672233.378,3,0,0,1.000,1.000,1.000,-90.00,180.00,-27.00,CLOSED,0
672233.382,3,0,0,1.000,1.000,1.000,-90.00,180.00,-27.00,CLOSED,0
672233.385,3,0,0,1.000,1.000,1.000,-90.00,180.00,-27.00,CLOSED,0
672233.389,3,0,0,1.000,1.000,1.000,-90.00,180.00,-27.00,CLOSED,0
672233.392,3,0,0,1.000,1.000,1.000,-90.00,180.00,-27.00,CLOSED,0
672233.396,3,0,0,1.000,1.000,1.000,-90.00,180.00,-27.00,CLOSED,0
672233.399,3,0,0,1.000,1.000,1.000,-90.00,180.00,-27.00,CLOSED,0
672233.403,3,0,0,1.000,1.000,1.000,-90.00,180.00,-27.00,CLOSED,0
672233.406,3,0,0,1.000,1.000,1.000,-90.00,180.00,-27.00,CLOSED,0
672233.410,3,0,0,1.000,1.000,1.000,-90.00,180.00,-27.00,CLOSED,0
672233.414,3,0,0,1.000,1.000,1.000,-90.00,180.00,-27.00,CLOSED,0
672233.418,3,0,0,1.000,1.000,1.000,-90.00,180.00,-27.00,CLOSED,0
672233.422,3,0,0,1.000,1.000,1.000,-90.00,180.00,-27.00,CLOSED,0
672233.426,3,0,0,1.000,1.000,1.000,-90.00,180.00,-27.00,CLOSED,0
672233.429,3,0,0,1.000,1.000,1.000,-90.00,180.00,-27.00,CLOSED,0
672233.433,3,0,0,1.000,1.000,1.000,-90.00,180.00,-27.00,CLOSED,0
672233.436,3,0,0,1.000,1.000,1.000,-90.00,180.00,-27.00,CLOSED,0
672233.440,3,0,0,1.000,1.000,1.000,-90.00,180.00,-27.00,CLOSED,0
672233.443,3,0,0,1.000,1.000,1.000,-90.00,180.00,-27.00,CLOSED,0
672233.447,3,0,0,1.000,1.000,1.000,-90.00,180.00,-27.00,CLOSED,0
672233.450,3,0,0,1.000,1.000,1.000,-90.00,180.00,-27.00,CLOSED,0
672233.454,3,0,0,1.000,1.000,1.000,-90.00,180.00,-27.00,CLOSED,0
672233.458,3,0,0,1.000,1.000,1.000,-90.00,180.00,-27.00,CLOSED,0
672233.462,3,0,0,1.000,1.000,1.000,-90.00,180.00,-27.00,CLOSED,0
672233.466,3,0,0,1.000,1.000,1.000,-90.00,180.00,-27.00,CLOSED,0
672233.469,3,0,0,1.000,1.000,1.000,-90.00,180.00,-27.00,CLOSED,0
672233.473,3,0,0,1.000,1.000,1.000,-90.00,180.00,-27.00,CLOSED,0
672233.476,3,0,0,1.000,1.000,1.000,-90.00,180.00,-27.00,CLOSED,0
672233.480,3,0,0,1.000,1.000,1.000,-90.00,180.00,-27.00,CLOSED,0
672233.484,3,0,0,1.000,1.000,1.000,-90.00,180.00,-27.00,CLOSED,0
672233.488,3,0,0,1.000,1.000,1.000,-90.00,180.00,-27.00,CLOSED,0
672233.492,3,0,0,1.000,1.000,1.000,-90.00,180.00,-27.00,CLOSED,0
672233.496,3,0,0,1.000,1.000,1.000,-90.00,180.00,-27.00,CLOSED,0
672233.500,3,0,0,1.000,1.000,1.000,-90.00,180.00,-27.00,CLOSED,0
672233.504,3,0,0,1.000,1.000,1.000,-90.00,180.00,-27.00,CLOSED,0
672233.508,3,0,0,1.000,1.000,1.000,-90.00,180.00,-27.00,CLOSED,0
672233.511,3,0,0,1.000,1.000,1.000,-90.00,180.00,-27.00,CLOSED,0
672233.515,3,0,0,1.000,1.000,1.000,-90.00,180.00,-27.00,CLOSED,0
672233.519,3,0,0,1.000,1.000,1.000,-90.00,180.00,-27.00,CLOSED,0
672233.522,3,0,0,1.000,1.000,1.000,-90.00,180.00,-27.00,CLOSED,0
672233.526,3,0,0,1.000,1.000,1.000,-90.00,180.00,-27.00,CLOSED,0
672233.530,3,0,0,1.000,1.000,1.000,-90.00,180.00,-27.00,CLOSED,0
672233.534,3,0,0,1.000,1.000,1.000,-90.00,180.00,-27.00,CLOSED,0
672233.538,3,0,0,1.000,1.000,1.000,-90.00,180.00,-27.00,CLOSED,0
672233.543,3,0,0,1.000,1.000,1.000,-90.00,180.00,-27.00,CLOSED,0
672233.547,3,0,0,1.000,1.000,1.000,-90.00,180.00,-27.00,CLOSED,0
672233.551,3,0,0,1.000,1.000,1.000,-90.00,180.00,-27.00,CLOSED,0
672233.555,3,0,0,1.000,1.000,1.000,-90.00,180.00,-27.00,CLOSED,0
672233.559,3,0,0,1.000,1.000,1.000,-90.00,180.00,-27.00,CLOSED,0
672233.562,3,0,0,1.000,1.000,1.000,-90.00,180.00,-27.00,CLOSED,0
672233.565,3,0,0,1.000,1.000,1.000,-90.00,180.00,-27.00,CLOSED,0
672233.569,3,0,0,1.000,1.000,1.000,-90.00,180.00,-27.00,CLOSED,0
672233.573,3,0,0,1.000,1.000,1.000,-90.00,180.00,-27.00,CLOSED,0
672233.577,3,0,0,1.000,1.000,1.000,-90.00,180.00,-27.00,CLOSED,0
672233.580,3,0,0,1.000,1.000,1.000,-90.00,180.00,-27.00,CLOSED,0
672233.584,3,0,0,1.000,1.000,1.000,-90.00,180.00,-27.00,CLOSED,0
672233.588,3,0,0,1.000,1.000,1.000,-90.00,180.00,-27.00,CLOSED,0
672233.591,3,0,0,1.000,1.000,1.000,-90.00,180.00,-27.00,CLOSED,0
672233.594,3,0,0,1.000,1.000,1.000,-90.00,180.00,-27.00,CLOSED,0
672233.599,3,0,0,1.000,1.000,1.000,-90.00,180.00,-27.00,CLOSED,0
672233.604,3,0,0,1.000,1.000,1.000,-90.00,180.00,-27.00,CLOSED,0
672233.610,3,0,0,1.000,1.000,1.000,-90.00,180.00,-27.00,CLOSED,0
672233.615,3,0,0,1.000,1.000,1.000,-90.00,180.00,-27.00,CLOSED,0
672233.620,3,0,0,1.000,1.000,1.000,-90.00,180.00,-27.00,CLOSED,0
672233.624,3,0,0,1.000,1.000,1.000,-90.00,180.00,-27.00,CLOSED,0
672233.628,3,0,0,1.000,1.000,1.000,-90.00,180.00,-27.00,CLOSED,0
672233.633,3,0,0,1.000,1.000,1.000,-90.00,180.00,-27.00,CLOSED,0
672233.636,3,0,0,1.000,1.000,1.000,-90.00,180.00,-27.00,CLOSED,0
672233.640,3,0,0,1.000,1.000,1.000,-90.00,180.00,-27.00,CLOSED,0
672233.643,3,0,0,1.000,1.000,1.000,-90.00,180.00,-27.00,CLOSED,0
672233.647,3,0,0,1.000,1.000,1.000,-90.00,180.00,-27.00,CLOSED,0
672233.651,3,0,0,1.000,1.000,1.000,-90.00,180.00,-27.00,CLOSED,0
672233.655,3,0,0,1.000,1.000,1.000,-90.00,180.00,-27.00,CLOSED,0
672233.659,3,0,0,1.000,1.000,1.000,-90.00,180.00,-27.00,CLOSED,0
672233.663,3,0,0,1.000,1.000,1.000,-90.00,180.00,-27.00,CLOSED,0
672233.667,3,0,0,1.000,1.000,1.000,-90.00,180.00,-27.00,CLOSED,0
672233.671,3,0,0,1.000,1.000,1.000,-90.00,180.00,-27.00,CLOSED,0
672233.675,3,0,0,1.000,1.000,1.000,-90.00,180.00,-27.00,CLOSED,0
672233.679,3,0,0,1.000,1.000,1.000,-90.00,180.00,-27.00,CLOSED,0
672233.683,3,0,0,1.000,1.000,1.000,-90.00,180.00,-27.00,CLOSED,0
672233.687,3,0,0,1.000,1.000,1.000,-90.00,180.00,-27.00,CLOSED,0
672233.691,3,0,0,1.000,1.000,1.000,-90.00,180.00,-27.00,CLOSED,0
672233.695,3,0,0,1.000,1.000,1.000,-90.00,180.00,-27.00,CLOSED,0
672233.699,3,0,0,1.000,1.000,1.000,-90.00,180.00,-27.00,CLOSED,0
672233.703,3,0,0,1.000,1.000,1.000,-90.00,180.00,-27.00,CLOSED,0
672233.707,3,0,0,1.000,1.000,1.000,-90.00,180.00,-27.00,CLOSED,0
672233.712,3,0,0,1.000,1.000,1.000,-90.00,180.00,-27.00,CLOSED,0
672233.715,3,0,0,1.000,1.000,1.000,-90.00,180.00,-27.00,CLOSED,0
672233.719,3,0,0,1.000,1.000,1.000,-90.00,180.00,-27.00,CLOSED,0
672233.723,3,0,0,1.000,1.000,1.000,-90.00,180.00,-27.00,CLOSED,0
672233.727,3,0,0,1.000,1.000,1.000,-90.00,180.00,-27.00,CLOSED,0
672233.731,3,0,0,0.998,1.000,1.000,-90.00,180.00,-27.00,CLOSED,0
672233.734,3,0,0,0.973,1.000,1.000,-90.00,180.00,-27.00,CLOSED,0
672233.738,3,0,0,0.588,1.000,1.000,-90.00,180.00,-27.00,CLOSED,0
672233.742,3,0,0,1.000,1.000,1.000,-90.00,180.00,-27.00,CLOSED,0
672233.745,3,0,0,1.000,1.000,1.000,-90.00,180.00,-27.00,CLOSED,0
672233.749,3,0,0,1.000,1.000,1.000,-90.00,180.00,-27.00,CLOSED,0
672233.752,3,0,0,1.000,1.000,1.000,-90.00,180.00,-27.00,CLOSED,0
672233.756,3,0,0,1.000,1.000,1.000,-90.00,180.00,-27.00,CLOSED,0
672233.761,3,0,0,1.000,1.000,1.000,-90.00,180.00,-27.00,CLOSED,0
672233.766,3,0,0,1.000,1.000,1.000,-90.00,180.00,-27.00,CLOSED,0
672233.770,0,0,0,1.000,1.000,1.000,-90.00,180.00,-27.00,CLOSED,0
672233.774,0,0,0,1.000,1.000,1.000,-90.00,180.00,-27.00,CLOSED,0
672233.778,0,0,0,1.000,1.000,1.000,-90.00,180.00,-27.00,CLOSED,0
672233.781,0,0,0,1.000,1.000,1.000,-90.00,180.00,-27.00,CLOSED,0
672233.785,0,0,0,1.000,1.000,1.000,-90.00,180.00,-27.00,CLOSED,0
672233.789,0,0,0,1.000,1.000,1.000,-90.00,180.00,-27.00,CLOSED,0
672233.793,0,0,0,1.000,1.000,1.000,-90.00,180.00,-27.00,CLOSED,0
672233.796,0,0,0,1.000,1.000,1.000,-90.00,180.00,-27.00,CLOSED,0
672233.800,0,0,0,1.000,1.000,1.000,-90.00,180.00,-27.00,CLOSED,0
672233.803,0,0,0,1.000,1.000,1.000,-90.00,180.00,-27.00,CLOSED,0
672233.808,0,0,0,1.000,1.000,1.000,-90.00,180.00,-27.00,CLOSED,0
672233.811,0,0,0,1.000,1.000,1.000,-90.00,180.00,-27.00,CLOSED,0
672233.816,0,0,0,1.000,1.000,1.000,-90.00,180.00,-27.00,CLOSED,0
672233.820,0,0,0,1.000,1.000,1.000,-90.00,180.00,-27.00,CLOSED,0
672233.825,0,0,0,1.000,1.000,1.000,-90.00,180.00,-27.00,CLOSED,0
672233.829,0,0,0,1.000,1.000,1.000,-90.00,180.00,-27.00,CLOSED,0
672233.833,0,0,0,1.000,1.000,1.000,-90.00,180.00,-27.00,CLOSED,0
672233.837,0,0,0,1.000,1.000,1.000,-90.00,180.00,-27.00,CLOSED,0
672233.841,0,0,0,1.000,1.000,1.000,-90.00,180.00,-27.00,CLOSED,0
672233.845,0,0,0,1.000,1.000,1.000,-90.00,180.00,-27.00,CLOSED,0
672233.848,0,0,0,1.000,1.000,1.000,-90.00,180.00,-27.00,CLOSED,0
672233.853,0,0,0,1.000,1.000,1.000,-90.00,180.00,-27.00,CLOSED,0
672233.856,0,0,0,1.000,1.000,1.000,-90.00,180.00,-27.00,CLOSED,0
672233.860,0,0,0,1.000,1.000,1.000,-90.00,180.00,-27.00,CLOSED,0
672233.864,0,0,0,1.000,1.000,1.000,-90.00,180.00,-27.00,CLOSED,0
672233.867,0,0,0,1.000,1.000,1.000,-90.00,180.00,-27.00,CLOSED,0
672233.871,0,0,0,1.000,1.000,1.000,-90.00,180.00,-27.00,CLOSED,0
672233.875,0,0,0,1.000,1.000,1.000,-90.00,180.00,-27.00,CLOSED,0
672233.879,0,0,0,1.000,1.000,1.000,-90.00,180.00,-27.00,CLOSED,0
672233.885,0,0,0,1.000,1.000,1.000,-90.00,180.00,-27.00,CLOSED,0
672233.889,0,0,0,1.000,1.000,1.000,-90.00,180.00,-27.00,CLOSED,0
672233.893,0,0,0,1.000,1.000,1.000,-90.00,180.00,-27.00,CLOSED,0
672233.897,0,0,0,1.000,1.000,1.000,-90.00,180.00,-27.00,CLOSED,0
672233.900,0,0,0,1.000,1.000,1.000,-90.00,180.00,-27.00,CLOSED,0
672233.905,0,0,0,1.000,1.000,1.000,-90.00,180.00,-27.00,CLOSED,0
672233.908,0,0,0,1.000,1.000,1.000,-90.00,180.00,-27.00,CLOSED,0
672233.912,0,0,0,1.000,1.000,1.000,-90.00,180.00,-27.00,CLOSED,0
672233.917,0,0,0,1.000,1.000,1.000,-90.00,180.00,-27.00,CLOSED,0
672233.921,0,0,0,1.000,1.000,1.000,-90.00,180.00,-27.00,CLOSED,0
672233.925,0,0,0,1.000,1.000,1.000,-90.00,180.00,-27.00,CLOSED,0
672233.929,0,0,0,1.000,1.000,1.000,-90.00,180.00,-27.00,CLOSED,0
672233.935,0,0,0,1.000,1.000,1.000,-90.00,180.00,-27.00,CLOSED,0
672233.939,0,0,0,1.000,1.000,1.000,-90.00,180.00,-27.00,CLOSED,0
672233.944,0,0,0,1.000,1.000,1.000,-90.00,180.00,-27.00,CLOSED,0
672233.950,0,0,0,1.000,1.000,1.000,-90.00,180.00,-27.00,CLOSED,0
672233.954,0,0,0,1.000,1.000,1.000,-90.00,180.00,-27.00,CLOSED,0
672233.957,0,0,0,1.000,1.000,1.000,-90.00,180.00,-27.00,CLOSED,0
672233.962,0,0,0,1.000,1.000,1.000,-90.00,180.00,-27.00,CLOSED,0
672233.967,0,0,0,1.000,1.000,1.000,-90.00,180.00,-27.00,CLOSED,0
672233.971,0,0,0,1.000,1.000,1.000,-90.00,180.00,-27.00,CLOSED,0
672233.976,0,0,0,1.000,1.000,1.000,-90.00,180.00,-27.00,CLOSED,0
672233.982,0,0,0,1.000,1.000,1.000,-90.00,180.00,-27.00,CLOSED,0
672233.987,0,0,0,1.000,1.000,1.000,-90.00,180.00,-27.00,CLOSED,0
672233.991,0,0,0,1.000,1.000,1.000,-90.00,180.00,-27.00,CLOSED,0
672233.996,0,0,0,1.000,1.000,1.000,-90.00,180.00,-27.00,CLOSED,0
672234.003,0,0,0,1.000,1.000,1.000,-90.00,180.00,-27.00,CLOSED,0
672234.008,0,0,0,1.000,1.000,1.000,-90.00,180.00,-27.00,CLOSED,0
672234.012,0,0,0,1.000,1.000,1.000,-90.00,180.00,-27.00,CLOSED,0
672234.016,0,0,0,1.000,1.000,1.000,-90.00,180.00,-27.00,CLOSED,0
672234.020,0,0,0,1.000,1.000,1.000,-90.00,180.00,-27.00,CLOSED,0
672234.024,0,0,0,1.000,1.000,1.000,-90.00,180.00,-27.00,CLOSED,0
672234.027,0,0,0,1.000,1.000,1.000,-90.00,180.00,-27.00,CLOSED,0
672234.034,0,0,0,1.000,1.000,1.000,-90.00,180.00,-27.00,CLOSED,0
672234.042,0,0,0,1.000,1.000,1.000,-90.00,180.00,-27.00,CLOSED,0
672234.048,0,0,0,1.000,1.000,1.000,-90.00,180.00,-27.00,CLOSED,0
672234.054,0,0,0,1.000,1.000,1.000,-90.00,180.00,-27.00,CLOSED,0
672234.060,0,0,0,1.000,1.000,1.000,-90.00,180.00,-27.00,CLOSED,0
672234.064,0,0,0,1.000,1.000,1.000,-90.00,180.00,-27.00,CLOSED,0
672234.070,0,0,0,1.000,1.000,1.000,-90.00,180.00,-27.00,CLOSED,0
672234.074,0,0,0,1.000,1.000,1.000,-90.00,180.00,-27.00,CLOSED,0
672234.079,0,0,0,1.000,1.000,1.000,-90.00,180.00,-27.00,CLOSED,0
672234.085,0,0,0,1.000,1.000,1.000,-90.00,180.00,-27.00,CLOSED,0
672234.090,0,0,0,1.000,1.000,1.000,-90.00,180.00,-27.00,CLOSED,0
672234.093,0,0,0,1.000,1.000,1.000,-90.00,180.00,-27.00,CLOSED,0
672234.097,0,0,0,1.000,1.000,1.000,-90.00,180.00,-27.00,CLOSED,0
672234.100,0,0,0,1.000,1.000,1.000,-90.00,180.00,-27.00,CLOSED,0
672234.104,0,0,0,1.000,1.000,1.000,-90.00,180.00,-27.00,CLOSED,0
672234.108,0,0,0,1.000,1.000,1.000,-90.00,180.00,-27.00,CLOSED,0
672234.112,0,0,0,1.000,1.000,1.000,-90.00,180.00,-27.00,CLOSED,0
672234.115,0,0,0,1.000,1.000,1.000,-90.00,180.00,-27.00,CLOSED,0
672234.119,0,0,0,1.000,1.000,1.000,-90.00,180.00,-27.00,CLOSED,0
672234.122,0,0,0,1.000,1.000,1.000,-90.00,180.00,-27.00,CLOSED,0
672234.126,0,0,0,1.000,1.000,1.000,-90.00,180.00,-27.00,CLOSED,0
672234.129,0,0,0,1.000,1.000,1.000,-90.00,180.00,-27.00,CLOSED,0
672234.133,0,0,0,1.000,1.000,1.000,-90.00,180.00,-27.00,CLOSED,0
672234.137,0,0,0,1.000,1.000,1.000,-90.00,180.00,-27.00,CLOSED,0
672234.141,0,0,0,1.000,1.000,1.000,-90.00,180.00,-27.00,CLOSED,0
672234.144,0,0,0,1.000,1.000,1.000,-90.00,180.00,-27.00,CLOSED,0
672234.148,0,0,0,1.000,1.000,1.000,-90.00,180.00,-27.00,CLOSED,0
672234.152,0,0,0,1.000,1.000,1.000,-90.00,180.00,-27.00,CLOSED,0
672234.155,0,0,0,1.000,1.000,1.000,-90.00,180.00,-27.00,CLOSED,0
672234.160,0,0,0,1.000,1.000,1.000,-90.00,180.00,-27.00,CLOSED,0
672234.164,0,0,0,1.000,1.000,1.000,-90.00,180.00,-27.00,CLOSED,0
672234.168,0,0,0,1.000,1.000,1.000,-90.00,180.00,-27.00,CLOSED,0
672234.172,0,0,0,1.000,1.000,1.000,-90.00,180.00,-27.00,CLOSED,0
672234.176,0,0,0,1.000,1.000,1.000,-90.00,180.00,-27.00,CLOSED,0
672234.180,0,0,0,1.000,1.000,1.000,-90.00,180.00,-27.00,CLOSED,0
672234.184,0,0,0,1.000,1.000,1.000,-90.00,180.00,-27.00,CLOSED,0
672234.188,0,0,0,1.000,1.000,1.000,-90.00,180.00,-27.00,CLOSED,0
672234.191,0,0,0,1.000,1.000,1.000,-90.00,180.00,-27.00,CLOSED,0
672234.196,0,0,0,1.000,1.000,1.000,-90.00,180.00,-27.00,CLOSED,0
672234.199,0,0,0,1.000,1.000,1.000,-90.00,180.00,-27.00,CLOSED,0
672234.203,0,0,0,1.000,1.000,1.000,-90.00,180.00,-27.00,CLOSED,0
672234.207,0,0,0,1.000,1.000,1.000,-90.00,180.00,-27.00,CLOSED,0
672234.210,0,0,0,1.000,1.000,1.000,-90.00,180.00,-27.00,CLOSED,0
672234.214,0,0,0,1.000,1.000,1.000,-90.00,180.00,-27.00,CLOSED,0
672234.217,0,0,0,1.000,1.000,1.000,-90.00,180.00,-27.00,CLOSED,0
672234.221,0,0,0,1.000,1.000,1.000,-90.00,180.00,-27.00,CLOSED,0
672234.225,0,0,0,1.000,1.000,1.000,-90.00,180.00,-27.00,CLOSED,0
672234.229,0,0,0,1.000,1.000,1.000,-90.00,180.00,-27.00,CLOSED,0
672234.233,0,0,0,1.000,1.000,1.000,-90.00,180.00,-27.00,CLOSED,0
672234.237,0,0,0,1.000,1.000,1.000,-90.00,180.00,-27.00,CLOSED,0
672234.241,0,0,0,1.000,1.000,1.000,-90.00,180.00,-27.00,CLOSED,0
672234.246,0,0,0,1.000,1.000,1.000,-90.00,180.00,-27.00,CLOSED,0
672234.251,0,0,0,1.000,1.000,1.000,-90.00,180.00,-27.00,CLOSED,0
672234.255,0,0,0,1.000,1.000,1.000,-90.00,180.00,-27.00,CLOSED,0
672234.259,0,0,0,1.000,1.000,1.000,-90.00,180.00,-27.00,CLOSED,0
672234.263,0,0,0,1.000,1.000,1.000,-90.00,180.00,-27.00,CLOSED,0
672234.266,0,0,0,1.000,1.000,1.000,-90.00,180.00,-27.00,CLOSED,0
672234.270,0,0,0,1.000,1.000,1.000,-90.00,180.00,-27.00,CLOSED,0
672234.274,0,0,0,1.000,1.000,1.000,-90.00,180.00,-27.00,CLOSED,0
672234.278,0,0,0,1.000,1.000,1.000,-90.00,180.00,-27.00,CLOSED,0
672234.282,0,0,0,1.000,1.000,1.000,-90.00,180.00,-27.00,CLOSED,0
672234.288,0,0,0,1.000,1.000,1.000,-90.00,180.00,-27.00,CLOSED,0
672234.293,0,0,0,1.000,1.000,1.000,-90.00,180.00,-27.00,CLOSED,0
672234.298,0,0,0,1.000,1.000,1.000,-90.00,180.00,-27.00,CLOSED,0
672234.303,0,0,0,1.000,1.000,1.000,-90.00,180.00,-27.00,CLOSED,0
672234.307,0,0,0,1.000,1.000,1.000,-90.00,180.00,-27.00,CLOSED,0
672234.311,0,0,0,1.000,1.000,1.000,-90.00,180.00,-27.00,CLOSED,0
672234.316,0,0,0,1.000,1.000,1.000,-90.00,180.00,-27.00,CLOSED,0
672234.320,0,0,0,1.000,1.000,1.000,-90.00,180.00,-27.00,CLOSED,0
672234.324,0,0,0,1.000,1.000,1.000,-90.00,180.00,-27.00,CLOSED,0
672234.328,0,0,0,1.000,1.000,1.000,-90.00,180.00,-27.00,CLOSED,0
672234.333,0,0,0,1.000,1.000,1.000,-90.00,180.00,-27.00,CLOSED,0
672234.337,0,0,0,1.000,1.000,1.000,-90.00,180.00,-27.00,CLOSED,0
672234.341,0,0,0,1.000,1.000,1.000,-90.00,180.00,-27.00,CLOSED,0
672234.345,0,0,0,0.998,1.000,1.000,-90.00,180.00,-27.00,CLOSED,0
672234.350,0,0,0,0.993,0.998,1.000,-90.00,180.00,-27.00,CLOSED,0
672234.354,0,0,0,0.980,0.978,1.000,-90.00,180.00,-27.00,CLOSED,0
672234.358,0,0,0,0.972,0.957,1.000,-90.00,180.00,-27.00,CLOSED,0
672234.362,0,0,0,0.958,1.000,1.000,-90.00,180.00,-27.00,CLOSED,0
672234.368,0,0,0,0.881,1.000,1.000,-90.00,180.00,-27.00,CLOSED,0
672234.372,0,0,0,0.600,1.000,1.000,-90.00,180.00,-27.00,CLOSED,0
672234.376,0,0,0,0.496,1.000,1.000,-90.00,180.00,-27.00,CLOSED,0
672234.381,0,0,0,0.629,1.000,1.000,-90.00,180.00,-27.00,CLOSED,0
672234.386,0,0,0,0.832,1.000,1.000,-90.00,180.00,-27.00,CLOSED,0
672234.391,0,0,0,0.889,1.000,1.000,-90.00,180.00,-27.00,CLOSED,0
672234.395,0,0,0,0.903,1.000,1.000,-90.00,180.00,-27.00,CLOSED,0
672234.402,0,0,0,0.939,1.000,1.000,-90.00,180.00,-27.00,CLOSED,0
672234.407,0,0,0,0.955,1.000,1.000,-90.00,180.00,-27.00,CLOSED,0
672234.411,0,0,0,0.949,1.000,1.000,-90.00,180.00,-27.00,CLOSED,0
672234.415,2,0,0,0.898,1.000,1.000,-90.00,180.00,-31.50,CLOSED,1
672234.419,2,0,0,0.730,1.000,1.000,-90.00,180.00,-31.50,CLOSED,0
672234.423,2,0,0,0.525,1.000,1.000,-90.00,180.00,-31.50,CLOSED,0
672234.426,2,0,0,0.780,1.000,1.000,-90.00,180.00,-31.50,CLOSED,0
672234.430,2,0,0,0.922,1.000,1.000,-90.00,180.00,-31.50,CLOSED,0
672234.434,2,0,0,0.972,1.000,1.000,-90.00,180.00,-31.50,CLOSED,0
672234.438,2,0,0,0.987,1.000,1.000,-90.00,180.00,-31.50,CLOSED,0
672234.442,2,0,0,0.993,1.000,1.000,-90.00,180.00,-31.50,CLOSED,0
672234.447,2,0,0,0.996,1.000,1.000,-90.00,180.00,-31.50,CLOSED,0
672234.451,2,0,0,0.997,1.000,1.000,-90.00,180.00,-31.50,CLOSED,0
672234.456,0,0,0,0.998,1.000,1.000,-90.00,180.00,-31.50,CLOSED,0
672234.460,0,0,0,0.998,1.000,1.000,-90.00,180.00,-31.50,CLOSED,0
672234.464,0,0,0,0.998,1.000,1.000,-90.00,180.00,-31.50,CLOSED,0
672234.468,0,0,0,0.998,1.000,1.000,-90.00,180.00,-31.50,CLOSED,0
672234.472,0,0,0,1.000,1.000,1.000,-90.00,180.00,-31.50,CLOSED,0
672234.477,0,0,0,1.000,1.000,1.000,-90.00,180.00,-31.50,CLOSED,0
672234.480,0,0,0,1.000,1.000,1.000,-90.00,180.00,-31.50,CLOSED,0
672234.484,0,0,0,1.000,1.000,1.000,-90.00,180.00,-31.50,CLOSED,0
672234.488,0,0,0,1.000,1.000,1.000,-90.00,180.00,-31.50,CLOSED,0
672234.492,0,0,0,1.000,1.000,1.000,-90.00,180.00,-31.50,CLOSED,0
672234.495,0,0,0,1.000,1.000,1.000,-90.00,180.00,-31.50,CLOSED,0
672234.499,0,0,0,1.000,1.000,1.000,-90.00,180.00,-31.50,CLOSED,0
672234.503,0,0,0,1.000,1.000,1.000,-90.00,180.00,-31.50,CLOSED,0
672234.507,0,0,0,1.000,1.000,1.000,-90.00,180.00,-31.50,CLOSED,0
672234.511,0,0,0,1.000,1.000,1.000,-90.00,180.00,-31.50,CLOSED,0
672234.514,0,0,0,1.000,1.000,1.000,-90.00,180.00,-31.50,CLOSED,0
672234.518,0,0,0,1.000,1.000,1.000,-90.00,180.00,-31.50,CLOSED,0
672234.523,0,0,0,1.000,1.000,1.000,-90.00,180.00,-31.50,CLOSED,0
672234.527,0,0,0,1.000,1.000,1.000,-90.00,180.00,-31.50,CLOSED,0
672234.534,0,0,0,1.000,1.000,1.000,-90.00,180.00,-31.50,CLOSED,0
672234.541,0,0,0,1.000,1.000,1.000,-90.00,180.00,-31.50,CLOSED,0
672234.545,0,0,0,1.000,1.000,1.000,-90.00,180.00,-31.50,CLOSED,0
672234.549,0,0,0,1.000,1.000,1.000,-90.00,180.00,-31.50,CLOSED,0
672234.554,0,0,0,1.000,1.000,1.000,-90.00,180.00,-31.50,CLOSED,0
672234.558,0,0,0,1.000,1.000,1.000,-90.00,180.00,-31.50,CLOSED,0
672234.562,0,0,0,1.000,1.000,1.000,-90.00,180.00,-31.50,CLOSED,0
672234.567,0,0,0,1.000,1.000,1.000,-90.00,180.00,-31.50,CLOSED,0
672234.572,0,0,0,1.000,1.000,1.000,-90.00,180.00,-31.50,CLOSED,0
672234.575,0,0,0,1.000,1.000,1.000,-90.00,180.00,-31.50,CLOSED,0
672234.580,0,0,0,1.000,1.000,1.000,-90.00,180.00,-31.50,CLOSED,0
672234.586,0,0,0,1.000,1.000,1.000,-90.00,180.00,-31.50,CLOSED,0
672234.590,0,0,0,1.000,1.000,1.000,-90.00,180.00,-31.50,CLOSED,0
672234.594,0,0,0,1.000,1.000,1.000,-90.00,180.00,-31.50,CLOSED,0
672234.599,0,0,0,1.000,1.000,1.000,-90.00,180.00,-31.50,CLOSED,0
672234.604,0,0,0,1.000,1.000,1.000,-90.00,180.00,-31.50,CLOSED,0
672234.607,0,0,0,1.000,1.000,1.000,-90.00,180.00,-31.50,CLOSED,0
672234.611,0,0,0,1.000,1.000,1.000,-90.00,180.00,-31.50,CLOSED,0
672234.616,0,0,0,1.000,1.000,1.000,-90.00,180.00,-31.50,CLOSED,0
672234.620,0,0,0,1.000,1.000,1.000,-90.00,180.00,-31.50,CLOSED,0
672234.624,0,0,0,1.000,1.000,1.000,-90.00,180.00,-31.50,CLOSED,0
672234.628,0,0,0,1.000,1.000,1.000,-90.00,180.00,-31.50,CLOSED,0
672234.632,0,0,0,1.000,1.000,1.000,-90.00,180.00,-31.50,CLOSED,0
672234.636,0,0,0,1.000,1.000,1.000,-90.00,180.00,-31.50,CLOSED,0
672234.640,0,0,0,1.000,1.000,1.000,-90.00,180.00,-31.50,CLOSED,0
672234.643,0,0,0,1.000,1.000,1.000,-90.00,180.00,-31.50,CLOSED,0
672234.647,0,0,0,1.000,1.000,1.000,-90.00,180.00,-31.50,CLOSED,0
672234.651,0,0,0,1.000,1.000,1.000,-90.00,180.00,-31.50,CLOSED,0
672234.655,0,0,0,1.000,1.000,1.000,-90.00,180.00,-31.50,CLOSED,0
672234.658,0,0,0,1.000,1.000,1.000,-90.00,180.00,-31.50,CLOSED,0
672234.662,0,0,0,1.000,1.000,1.000,-90.00,180.00,-31.50,CLOSED,0
672234.666,0,0,0,1.000,1.000,1.000,-90.00,180.00,-31.50,CLOSED,0
672234.670,0,0,0,1.000,1.000,1.000,-90.00,180.00,-31.50,CLOSED,0
672234.673,0,0,0,1.000,1.000,1.000,-90.00,180.00,-31.50,CLOSED,0
672234.677,0,0,0,1.000,1.000,1.000,-90.00,180.00,-31.50,CLOSED,0
672234.681,0,0,0,1.000,1.000,1.000,-90.00,180.00,-31.50,CLOSED,0
672234.685,0,0,0,1.000,1.000,1.000,-90.00,180.00,-31.50,CLOSED,0
672234.690,0,0,0,1.000,1.000,1.000,-90.00,180.00,-31.50,CLOSED,0
672234.694,0,0,0,1.000,1.000,1.000,-90.00,180.00,-31.50,CLOSED,0
672234.697,0,0,0,1.000,1.000,1.000,-90.00,180.00,-31.50,CLOSED,0
672234.701,0,0,0,1.000,1.000,1.000,-90.00,180.00,-31.50,CLOSED,0
672234.704,0,0,0,1.000,1.000,1.000,-90.00,180.00,-31.50,CLOSED,0
672234.708,0,0,0,1.000,1.000,1.000,-90.00,180.00,-31.50,CLOSED,0
672234.712,0,0,0,1.000,1.000,1.000,-90.00,180.00,-31.50,CLOSED,0
672234.715,0,0,0,1.000,1.000,1.000,-90.00,180.00,-31.50,CLOSED,0
672234.719,0,0,0,1.000,1.000,1.000,-90.00,180.00,-31.50,CLOSED,0
672234.722,0,0,0,1.000,1.000,1.000,-90.00,180.00,-31.50,CLOSED,0
672234.726,0,0,0,1.000,1.000,1.000,-90.00,180.00,-31.50,CLOSED,0
672234.729,0,0,0,1.000,1.000,1.000,-90.00,180.00,-31.50,CLOSED,0
672234.733,0,0,0,1.000,1.000,1.000,-90.00,180.00,-31.50,CLOSED,0
672234.738,0,0,0,1.000,1.000,1.000,-90.00,180.00,-31.50,CLOSED,0
672234.742,0,0,0,1.000,1.000,1.000,-90.00,180.00,-31.50,CLOSED,0
672234.746,0,0,0,1.000,1.000,1.000,-90.00,180.00,-31.50,CLOSED,0
672234.750,0,0,0,1.000,1.000,1.000,-90.00,180.00,-31.50,CLOSED,0
672234.755,0,0,0,1.000,1.000,1.000,-90.00,180.00,-31.50,CLOSED,0
672234.759,0,0,0,1.000,1.000,1.000,-90.00,180.00,-31.50,CLOSED,0
672234.762,0,0,0,1.000,1.000,1.000,-90.00,180.00,-31.50,CLOSED,0
672234.766,0,0,0,1.000,1.000,1.000,-90.00,180.00,-31.50,CLOSED,0
672234.770,0,0,0,1.000,1.000,1.000,-90.00,180.00,-31.50,CLOSED,0
672234.774,0,0,0,1.000,1.000,1.000,-90.00,180.00,-31.50,CLOSED,0
672234.777,0,0,0,1.000,1.000,1.000,-90.00,180.00,-31.50,CLOSED,0
672234.781,0,0,0,1.000,1.000,1.000,-90.00,180.00,-31.50,CLOSED,0
672234.786,0,0,0,1.000,1.000,1.000,-90.00,180.00,-31.50,CLOSED,0
672234.790,0,0,0,1.000,1.000,1.000,-90.00,180.00,-31.50,CLOSED,0
672234.794,0,0,0,1.000,1.000,1.000,-90.00,180.00,-31.50,CLOSED,0
672234.798,0,0,0,1.000,1.000,1.000,-90.00,180.00,-31.50,CLOSED,0
672234.801,0,0,0,1.000,1.000,1.000,-90.00,180.00,-31.50,CLOSED,0
672234.805,0,0,0,1.000,1.000,1.000,-90.00,180.00,-31.50,CLOSED,0
672234.808,0,0,0,1.000,1.000,1.000,-90.00,180.00,-31.50,CLOSED,0
672234.812,0,0,0,1.000,1.000,1.000,-90.00,180.00,-31.50,CLOSED,0
672234.816,0,0,0,1.000,1.000,1.000,-90.00,180.00,-31.50,CLOSED,0
672234.819,0,0,0,1.000,1.000,1.000,-90.00,180.00,-31.50,CLOSED,0
672234.823,0,0,0,1.000,1.000,1.000,-90.00,180.00,-31.50,CLOSED,0
672234.826,0,0,0,1.000,1.000,1.000,-90.00,180.00,-31.50,CLOSED,0
672234.830,0,0,0,1.000,1.000,1.000,-90.00,180.00,-31.50,CLOSED,0
672234.834,0,0,0,1.000,0.993,1.000,-90.00,180.00,-31.50,CLOSED,0
672234.838,0,0,0,1.000,0.947,1.000,-90.00,180.00,-31.50,CLOSED,0
672234.842,0,0,0,1.000,0.842,1.000,-90.00,180.00,-31.50,CLOSED,0
672234.846,0,0,0,1.000,0.684,1.000,-90.00,180.00,-31.50,CLOSED,0
672234.850,0,0,0,1.000,0.748,1.000,-90.00,180.00,-31.50,CLOSED,0
672234.853,0,0,0,1.000,0.994,1.000,-90.00,180.00,-31.50,CLOSED,0
672234.857,0,0,0,1.000,1.000,1.000,-90.00,180.00,-31.50,CLOSED,0
672234.861,0,0,0,1.000,1.000,1.000,-90.00,180.00,-31.50,CLOSED,0
672234.865,0,0,0,1.000,1.000,1.000,-90.00,180.00,-31.50,CLOSED,0
672234.869,0,0,0,1.000,1.000,1.000,-90.00,180.00,-31.50,CLOSED,0
672234.873,0,0,0,1.000,1.000,1.000,-90.00,180.00,-31.50,CLOSED,0
672234.877,0,0,0,1.000,1.000,1.000,-90.00,180.00,-31.50,CLOSED,0
672234.881,0,0,0,1.000,1.000,1.000,-90.00,180.00,-31.50,CLOSED,0
672234.884,0,0,0,1.000,1.000,1.000,-90.00,180.00,-31.50,CLOSED,0
672234.888,0,0,0,1.000,1.000,1.000,-90.00,180.00,-31.50,CLOSED,0
672234.892,0,0,0,1.000,1.000,1.000,-90.00,180.00,-31.50,CLOSED,0
672234.895,0,0,0,1.000,1.000,1.000,-90.00,180.00,-31.50,CLOSED,0
672234.899,0,0,0,1.000,1.000,1.000,-90.00,180.00,-31.50,CLOSED,0
672234.903,0,0,0,1.000,1.000,1.000,-90.00,180.00,-31.50,CLOSED,0
672234.907,0,0,0,1.000,1.000,1.000,-90.00,180.00,-31.50,CLOSED,0
672234.911,0,0,0,1.000,1.000,1.000,-90.00,180.00,-31.50,CLOSED,0
672234.915,0,0,0,1.000,1.000,1.000,-90.00,180.00,-31.50,CLOSED,0
672234.919,0,0,0,1.000,1.000,1.000,-90.00,180.00,-31.50,CLOSED,0
672234.923,0,0,0,1.000,1.000,1.000,-90.00,180.00,-31.50,CLOSED,0
672234.926,0,0,0,1.000,1.000,1.000,-90.00,180.00,-31.50,CLOSED,0
672234.930,0,0,0,1.000,1.000,1.000,-90.00,180.00,-31.50,CLOSED,0
672234.934,0,0,0,1.000,1.000,1.000,-90.00,180.00,-31.50,CLOSED,0
672234.938,0,0,0,1.000,1.000,1.000,-90.00,180.00,-31.50,CLOSED,0
672234.941,0,0,0,1.000,1.000,1.000,-90.00,180.00,-31.50,CLOSED,0
672234.945,0,0,0,1.000,1.000,1.000,-90.00,180.00,-31.50,CLOSED,0
672234.949,0,0,0,1.000,1.000,1.000,-90.00,180.00,-31.50,CLOSED,0
672234.953,0,0,0,1.000,1.000,1.000,-90.00,180.00,-31.50,CLOSED,0
672234.957,0,0,0,1.000,1.000,1.000,-90.00,180.00,-31.50,CLOSED,0
672234.960,0,0,0,1.000,1.000,1.000,-90.00,180.00,-31.50,CLOSED,0
672234.966,0,0,0,1.000,1.000,1.000,-90.00,180.00,-31.50,CLOSED,0
672234.969,0,0,0,1.000,1.000,1.000,-90.00,180.00,-31.50,CLOSED,0
672234.973,0,0,0,1.000,1.000,1.000,-90.00,180.00,-31.50,CLOSED,0
672234.977,0,0,0,1.000,1.000,1.000,-90.00,180.00,-31.50,CLOSED,0
672234.982,0,0,0,1.000,1.000,1.000,-90.00,180.00,-31.50,CLOSED,0
672234.986,0,0,0,1.000,1.000,1.000,-90.00,180.00,-31.50,CLOSED,0
672234.989,0,0,0,1.000,1.000,1.000,-90.00,180.00,-31.50,CLOSED,0
672234.994,0,0,0,1.000,1.000,1.000,-90.00,180.00,-31.50,CLOSED,0
672235.000,0,0,0,1.000,1.000,1.000,-90.00,180.00,-31.50,CLOSED,0
672235.004,0,0,0,1.000,1.000,1.000,-90.00,180.00,-31.50,CLOSED,0
672235.008,0,0,0,1.000,1.000,1.000,-90.00,180.00,-31.50,CLOSED,0
672235.013,0,0,0,1.000,1.000,1.000,-90.00,180.00,-31.50,CLOSED,0
672235.020,0,0,0,1.000,1.000,1.000,-90.00,180.00,-31.50,CLOSED,0
672235.024,0,0,0,1.000,1.000,1.000,-90.00,180.00,-31.50,CLOSED,0
672235.028,0,0,0,1.000,1.000,1.000,-90.00,180.00,-31.50,CLOSED,0
672235.033,0,0,0,1.000,1.000,1.000,-90.00,180.00,-31.50,CLOSED,0
672235.037,0,0,0,1.000,1.000,1.000,-90.00,180.00,-31.50,CLOSED,0
672235.041,0,0,0,1.000,1.000,1.000,-90.00,180.00,-31.50,CLOSED,0
672235.045,0,0,0,1.000,1.000,1.000,-90.00,180.00,-31.50,CLOSED,0
672235.049,0,0,0,1.000,1.000,1.000,-90.00,180.00,-31.50,CLOSED,0
672235.053,0,0,0,1.000,1.000,1.000,-90.00,180.00,-31.50,CLOSED,0
672235.057,0,0,0,1.000,1.000,1.000,-90.00,180.00,-31.50,CLOSED,0
672235.061,0,0,0,1.000,1.000,1.000,-90.00,180.00,-31.50,CLOSED,0
672235.065,0,0,0,1.000,1.000,1.000,-90.00,180.00,-31.50,CLOSED,0
672235.069,0,0,0,1.000,1.000,1.000,-90.00,180.00,-31.50,CLOSED,0
672235.073,0,0,0,1.000,1.000,1.000,-90.00,180.00,-31.50,CLOSED,0
672235.077,0,0,0,1.000,1.000,1.000,-90.00,180.00,-31.50,CLOSED,0
672235.082,0,0,0,1.000,1.000,1.000,-90.00,180.00,-31.50,CLOSED,0
672235.087,0,0,0,1.000,1.000,1.000,-90.00,180.00,-31.50,CLOSED,0
672235.091,0,0,0,1.000,1.000,1.000,-90.00,180.00,-31.50,CLOSED,0
672235.097,0,0,0,1.000,1.000,1.000,-90.00,180.00,-31.50,CLOSED,0
672235.101,0,0,0,1.000,1.000,1.000,-90.00,180.00,-31.50,CLOSED,0
672235.105,0,0,0,1.000,1.000,1.000,-90.00,180.00,-31.50,CLOSED,0
672235.110,0,0,0,1.000,1.000,1.000,-90.00,180.00,-31.50,CLOSED,0
672235.115,0,0,0,1.000,1.000,1.000,-90.00,180.00,-31.50,CLOSED,0
672235.120,0,0,0,1.000,1.000,1.000,-90.00,180.00,-31.50,CLOSED,0
672235.124,0,0,0,1.000,1.000,1.000,-90.00,180.00,-31.50,CLOSED,0
672235.129,0,0,0,1.000,1.000,1.000,-90.00,180.00,-31.50,CLOSED,0
672235.133,0,0,0,1.000,1.000,1.000,-90.00,180.00,-31.50,CLOSED,0
672235.136,0,0,0,1.000,1.000,1.000,-90.00,180.00,-31.50,CLOSED,0
672235.140,0,0,0,1.000,1.000,1.000,-90.00,180.00,-31.50,CLOSED,0
672235.144,0,0,0,1.000,1.000,1.000,-90.00,180.00,-31.50,CLOSED,0
672235.148,0,0,0,1.000,1.000,1.000,-90.00,180.00,-31.50,CLOSED,0
672235.152,0,0,0,1.000,1.000,1.000,-90.00,180.00,-31.50,CLOSED,0
672235.155,0,0,0,1.000,1.000,1.000,-90.00,180.00,-31.50,CLOSED,0
672235.159,0,0,0,1.000,1.000,1.000,-90.00,180.00,-31.50,CLOSED,0
672235.162,0,0,0,1.000,1.000,1.000,-90.00,180.00,-31.50,CLOSED,0
672235.166,0,0,0,1.000,1.000,1.000,-90.00,180.00,-31.50,CLOSED,0
672235.169,0,0,0,1.000,1.000,1.000,-90.00,180.00,-31.50,CLOSED,0
672235.173,0,0,0,1.000,1.000,1.000,-90.00,180.00,-31.50,CLOSED,0
672235.177,0,0,0,1.000,1.000,1.000,-90.00,180.00,-31.50,CLOSED,0
672235.183,0,0,0,1.000,1.000,1.000,-90.00,180.00,-31.50,CLOSED,0
672235.188,0,0,0,1.000,1.000,1.000,-90.00,180.00,-31.50,CLOSED,0
672235.192,0,0,0,1.000,1.000,1.000,-90.00,180.00,-31.50,CLOSED,0
672235.197,0,0,0,1.000,1.000,1.000,-90.00,180.00,-31.50,CLOSED,0
672235.201,0,0,0,1.000,1.000,1.000,-90.00,180.00,-31.50,CLOSED,0
672235.206,0,0,0,1.000,1.000,1.000,-90.00,180.00,-31.50,CLOSED,0
672235.210,0,0,0,1.000,1.000,1.000,-90.00,180.00,-31.50,CLOSED,0
672235.213,0,0,0,1.000,1.000,1.000,-90.00,180.00,-31.50,CLOSED,0
672235.217,0,0,0,1.000,1.000,1.000,-90.00,180.00,-31.50,CLOSED,0
672235.220,0,0,0,1.000,1.000,1.000,-90.00,180.00,-31.50,CLOSED,0
672235.224,0,0,0,1.000,1.000,1.000,-90.00,180.00,-31.50,CLOSED,0
672235.228,0,0,0,1.000,1.000,1.000,-90.00,180.00,-31.50,CLOSED,0
672235.231,0,0,0,1.000,1.000,1.000,-90.00,180.00,-31.50,CLOSED,0
672235.235,0,0,0,1.000,1.000,1.000,-90.00,180.00,-31.50,CLOSED,0
672235.238,0,0,0,1.000,1.000,1.000,-90.00,180.00,-31.50,CLOSED,0
672235.242,0,0,0,1.000,1.000,1.000,-90.00,180.00,-31.50,CLOSED,0
672235.247,0,0,0,1.000,1.000,1.000,-90.00,180.00,-31.50,CLOSED,0
672235.251,0,0,0,1.000,1.000,1.000,-90.00,180.00,-31.50,CLOSED,0
672235.255,0,0,0,1.000,1.000,1.000,-90.00,180.00,-31.50,CLOSED,0
672235.258,0,0,0,1.000,1.000,1.000,-90.00,180.00,-31.50,CLOSED,0
672235.262,0,0,0,1.000,1.000,1.000,-90.00,180.00,-31.50,CLOSED,0
672235.266,0,0,0,1.000,1.000,1.000,-90.00,180.00,-31.50,CLOSED,0
672235.269,0,0,0,1.000,1.000,1.000,-90.00,180.00,-31.50,CLOSED,0
672235.273,0,0,0,1.000,1.000,1.000,-90.00,180.00,-31.50,CLOSED,0
672235.276,0,0,0,1.000,1.000,1.000,-90.00,180.00,-31.50,CLOSED,0
672235.280,0,0,0,1.000,1.000,1.000,-90.00,180.00,-31.50,CLOSED,0
672235.284,0,0,0,1.000,1.000,1.000,-90.00,180.00,-31.50,CLOSED,0
672235.287,0,0,0,1.000,1.000,1.000,-90.00,180.00,-31.50,CLOSED,0
672235.291,0,0,0,1.000,1.000,1.000,-90.00,180.00,-31.50,CLOSED,0
672235.295,0,0,0,1.000,1.000,1.000,-90.00,180.00,-31.50,CLOSED,0
672235.299,0,0,0,1.000,1.000,1.000,-90.00,180.00,-31.50,CLOSED,0
672235.303,0,0,0,1.000,1.000,1.000,-90.00,180.00,-31.50,CLOSED,0
672235.306,0,0,0,1.000,1.000,1.000,-90.00,180.00,-31.50,CLOSED,0
672235.310,0,0,0,1.000,1.000,1.000,-90.00,180.00,-31.50,CLOSED,0
672235.314,0,0,0,1.000,1.000,1.000,-90.00,180.00,-31.50,CLOSED,0
672235.317,0,0,0,1.000,1.000,1.000,-90.00,180.00,-31.50,CLOSED,0
672235.321,0,0,0,1.000,1.000,1.000,-90.00,180.00,-31.50,CLOSED,0
672235.325,0,0,0,1.000,1.000,1.000,-90.00,180.00,-31.50,CLOSED,0
672235.328,0,0,0,1.000,1.000,1.000,-90.00,180.00,-31.50,CLOSED,0
672235.333,0,0,0,1.000,1.000,1.000,-90.00,180.00,-31.50,CLOSED,0
672235.338,0,0,0,1.000,1.000,1.000,-90.00,180.00,-31.50,CLOSED,0
672235.343,0,0,0,1.000,1.000,1.000,-90.00,180.00,-31.50,CLOSED,0
672235.347,0,0,0,1.000,1.000,1.000,-90.00,180.00,-31.50,CLOSED,0
672235.351,0,0,0,1.000,1.000,1.000,-90.00,180.00,-31.50,CLOSED,0
672235.356,0,0,0,1.000,1.000,1.000,-90.00,180.00,-31.50,CLOSED,0
672235.360,0,0,0,1.000,1.000,1.000,-90.00,180.00,-31.50,CLOSED,0
672235.364,0,0,0,1.000,1.000,1.000,-90.00,180.00,-31.50,CLOSED,0
672235.368,0,0,0,1.000,1.000,1.000,-90.00,180.00,-31.50,CLOSED,0
672235.371,0,0,0,1.000,1.000,1.000,-90.00,180.00,-31.50,CLOSED,0
672235.375,0,0,0,1.000,1.000,1.000,-90.00,180.00,-31.50,CLOSED,0
672235.378,0,0,0,1.000,1.000,1.000,-90.00,180.00,-31.50,CLOSED,0
672235.382,0,0,0,1.000,1.000,1.000,-90.00,180.00,-31.50,CLOSED,0
672235.386,0,0,0,1.000,1.000,1.000,-90.00,180.00,-31.50,CLOSED,0
672235.389,0,0,0,1.000,1.000,1.000,-90.00,180.00,-31.50,CLOSED,0
672235.393,0,0,0,1.000,1.000,1.000,-90.00,180.00,-31.50,CLOSED,0
672235.398,0,0,0,1.000,1.000,1.000,-90.00,180.00,-31.50,CLOSED,0
672235.403,0,0,0,1.000,1.000,1.000,-90.00,180.00,-31.50,CLOSED,0
672235.408,0,0,0,1.000,1.000,1.000,-90.00,180.00,-31.50,CLOSED,0
672235.413,0,0,0,1.000,1.000,1.000,-90.00,180.00,-31.50,CLOSED,0
672235.418,0,0,0,1.000,1.000,1.000,-90.00,180.00,-31.50,CLOSED,0
672235.422,0,0,0,1.000,1.000,1.000,-90.00,180.00,-31.50,CLOSED,0
672235.426,0,0,0,1.000,1.000,1.000,-90.00,180.00,-31.50,CLOSED,0
672235.431,0,0,0,1.000,1.000,1.000,-90.00,180.00,-31.50,CLOSED,0
672235.434,0,0,0,1.000,1.000,1.000,-90.00,180.00,-31.50,CLOSED,0
672235.439,0,0,0,1.000,1.000,1.000,-90.00,180.00,-31.50,CLOSED,0
672235.442,0,0,0,1.000,1.000,1.000,-90.00,180.00,-31.50,CLOSED,0
672235.446,0,0,0,1.000,1.000,1.000,-90.00,180.00,-31.50,CLOSED,0
672235.449,0,0,0,1.000,1.000,1.000,-90.00,180.00,-31.50,CLOSED,0
672235.453,0,0,0,1.000,1.000,1.000,-90.00,180.00,-31.50,CLOSED,0
672235.456,0,0,0,1.000,1.000,0.999,-90.00,180.00,-31.50,CLOSED,0
672235.459,0,0,0,0.999,1.000,0.990,-90.00,180.00,-31.50,CLOSED,0
672235.464,0,0,0,0.999,1.000,0.947,-90.00,180.00,-31.50,CLOSED,0
672235.468,0,0,0,1.000,0.997,0.840,-90.00,180.00,-31.50,CLOSED,0
672235.472,0,0,0,1.000,0.948,0.678,-90.00,180.00,-31.50,CLOSED,0
672235.476,0,0,0,1.000,0.754,0.528,-90.00,180.00,-31.50,CLOSED,0
672235.480,0,0,0,1.000,0.996,0.731,-90.00,180.00,-31.50,CLOSED,0
672235.483,0,0,0,0.999,1.000,0.896,-90.00,180.00,-31.50,CLOSED,0
672235.487,0,0,0,0.992,1.000,0.980,-90.00,180.00,-31.50,CLOSED,0
672235.490,0,0,0,0.981,1.000,0.996,-90.00,180.00,-31.50,CLOSED,0
672235.495,0,0,0,0.999,1.000,0.999,-90.00,180.00,-31.50,CLOSED,0
672235.498,0,0,0,1.000,1.000,1.000,-90.00,180.00,-31.50,CLOSED,0
672235.502,0,0,0,1.000,1.000,1.000,-90.00,180.00,-31.50,CLOSED,0
672235.506,0,0,0,1.000,1.000,1.000,-90.00,180.00,-31.50,CLOSED,0
672235.509,0,0,0,1.000,1.000,1.000,-90.00,180.00,-31.50,CLOSED,0
672235.513,0,0,0,1.000,1.000,1.000,-90.00,180.00,-31.50,CLOSED,0
672235.517,0,0,0,1.000,1.000,1.000,-90.00,180.00,-31.50,CLOSED,0
672235.522,0,0,0,1.000,1.000,1.000,-90.00,180.00,-31.50,CLOSED,0
672235.527,0,0,0,1.000,1.000,1.000,-90.00,180.00,-31.50,CLOSED,0
672235.532,0,0,0,1.000,1.000,1.000,-90.00,180.00,-31.50,CLOSED,0
672235.537,0,0,0,0.999,1.000,1.000,-90.00,180.00,-31.50,CLOSED,0
672235.542,0,0,0,0.995,1.000,1.000,-90.00,180.00,-31.50,CLOSED,0
672235.546,0,0,0,0.990,1.000,1.000,-90.00,180.00,-31.50,CLOSED,0
672235.549,0,0,0,1.000,0.969,1.000,-90.00,180.00,-31.50,CLOSED,0
672235.553,0,0,0,1.000,0.991,1.000,-90.00,180.00,-31.50,CLOSED,0
672235.557,0,0,0,1.000,1.000,1.000,-90.00,180.00,-31.50,CLOSED,0
672235.560,0,0,0,1.000,1.000,1.000,-90.00,180.00,-31.50,CLOSED,0
672235.564,0,0,0,1.000,1.000,1.000,-90.00,180.00,-31.50,CLOSED,0
672235.567,0,0,0,1.000,1.000,1.000,-90.00,180.00,-31.50,CLOSED,0
672235.571,0,0,0,1.000,1.000,1.000,-90.00,180.00,-31.50,CLOSED,0
672235.575,0,0,0,1.000,1.000,1.000,-90.00,180.00,-31.50,CLOSED,0
672235.580,0,0,0,1.000,1.000,1.000,-90.00,180.00,-31.50,CLOSED,0
672235.585,0,0,0,1.000,1.000,1.000,-90.00,180.00,-31.50,CLOSED,0
672235.589,0,0,0,1.000,1.000,1.000,-90.00,180.00,-31.50,CLOSED,0
672235.593,0,0,0,1.000,1.000,1.000,-90.00,180.00,-31.50,CLOSED,0
672235.597,0,0,0,1.000,1.000,1.000,-90.00,180.00,-31.50,CLOSED,0
672235.601,0,0,0,1.000,1.000,1.000,-90.00,180.00,-31.50,CLOSED,0
672235.605,0,0,0,1.000,1.000,1.000,-90.00,180.00,-31.50,CLOSED,0
672235.609,0,0,0,1.000,1.000,1.000,-90.00,180.00,-31.50,CLOSED,0
672235.613,0,0,0,1.000,1.000,1.000,-90.00,180.00,-31.50,CLOSED,0
672235.617,0,0,0,1.000,1.000,1.000,-90.00,180.00,-31.50,CLOSED,0
672235.622,0,0,0,1.000,1.000,1.000,-90.00,180.00,-31.50,CLOSED,0
672235.626,0,0,0,1.000,1.000,1.000,-90.00,180.00,-31.50,CLOSED,0
672235.631,0,0,0,1.000,0.999,1.000,-90.00,180.00,-31.50,CLOSED,0
672235.634,0,0,0,1.000,0.997,1.000,-90.00,180.00,-31.50,CLOSED,0
672235.638,0,0,0,1.000,0.996,1.000,-90.00,180.00,-31.50,CLOSED,0
672235.642,0,0,0,1.000,0.998,1.000,-90.00,180.00,-31.50,CLOSED,0
672235.646,0,0,0,1.000,0.999,1.000,-90.00,180.00,-31.50,CLOSED,0
672235.649,0,0,0,1.000,1.000,1.000,-90.00,180.00,-31.50,CLOSED,0
672235.653,0,0,0,1.000,1.000,1.000,-90.00,180.00,-31.50,CLOSED,0
672235.657,0,0,0,1.000,1.000,1.000,-90.00,180.00,-31.50,CLOSED,0
672235.661,0,0,0,1.000,1.000,1.000,-90.00,180.00,-31.50,CLOSED,0
672235.665,0,0,0,1.000,1.000,1.000,-90.00,180.00,-31.50,CLOSED,0
672235.669,0,0,0,1.000,1.000,1.000,-90.00,180.00,-31.50,CLOSED,0
672235.673,0,0,0,1.000,1.000,1.000,-90.00,180.00,-31.50,CLOSED,0
672235.677,0,0,0,1.000,1.000,1.000,-90.00,180.00,-31.50,CLOSED,0
672235.681,0,0,0,1.000,1.000,1.000,-90.00,180.00,-31.50,CLOSED,0
672235.687,0,0,0,1.000,1.000,1.000,-90.00,180.00,-31.50,CLOSED,0
672235.691,0,0,0,1.000,1.000,1.000,-90.00,180.00,-31.50,CLOSED,0
672235.695,0,0,0,1.000,1.000,1.000,-90.00,180.00,-31.50,CLOSED,0
672235.701,0,0,0,1.000,1.000,1.000,-90.00,180.00,-31.50,CLOSED,0
672235.708,0,0,0,1.000,1.000,1.000,-90.00,180.00,-31.50,CLOSED,0
672235.715,0,0,0,1.000,1.000,1.000,-90.00,180.00,-31.50,CLOSED,0
672235.724,0,0,0,1.000,1.000,1.000,-90.00,180.00,-31.50,CLOSED,0
672235.731,0,0,0,1.000,1.000,1.000,-90.00,180.00,-31.50,CLOSED,0
672235.736,0,0,0,1.000,1.000,1.000,-90.00,180.00,-31.50,CLOSED,0
672235.743,0,0,0,1.000,1.000,1.000,-90.00,180.00,-31.50,CLOSED,0
672235.747,0,0,0,1.000,1.000,1.000,-90.00,180.00,-31.50,CLOSED,0
672235.751,0,0,0,1.000,1.000,1.000,-90.00,180.00,-31.50,CLOSED,0
672235.757,0,0,0,1.000,1.000,1.000,-90.00,180.00,-31.50,CLOSED,0
672235.761,0,0,0,1.000,1.000,1.000,-90.00,180.00,-31.50,CLOSED,0
672235.765,0,0,0,1.000,1.000,1.000,-90.00,180.00,-31.50,CLOSED,0
672235.769,0,0,0,1.000,1.000,1.000,-90.00,180.00,-31.50,CLOSED,0
672235.775,0,0,0,1.000,1.000,1.000,-90.00,180.00,-31.50,CLOSED,0
672235.779,0,0,0,1.000,1.000,1.000,-90.00,180.00,-31.50,CLOSED,0
672235.783,0,0,0,1.000,1.000,1.000,-90.00,180.00,-31.50,CLOSED,0
672235.787,0,0,0,1.000,1.000,1.000,-90.00,180.00,-31.50,CLOSED,0
672235.792,0,0,0,1.000,1.000,1.000,-90.00,180.00,-31.50,CLOSED,0
672235.796,0,0,0,1.000,1.000,1.000,-90.00,180.00,-31.50,CLOSED,0
672235.800,0,0,0,1.000,1.000,1.000,-90.00,180.00,-31.50,CLOSED,0
672235.804,0,0,0,1.000,1.000,1.000,-90.00,180.00,-31.50,CLOSED,0
672235.808,0,0,0,1.000,1.000,1.000,-90.00,180.00,-31.50,CLOSED,0
672235.812,0,0,0,1.000,1.000,1.000,-90.00,180.00,-31.50,CLOSED,0
672235.816,0,0,0,1.000,1.000,1.000,-90.00,180.00,-31.50,CLOSED,0
672235.819,0,0,0,1.000,1.000,1.000,-90.00,180.00,-31.50,CLOSED,0
672235.823,0,0,0,1.000,1.000,1.000,-90.00,180.00,-31.50,CLOSED,0
672235.827,0,0,0,1.000,1.000,1.000,-90.00,180.00,-31.50,CLOSED,0
672235.830,0,0,0,1.000,1.000,1.000,-90.00,180.00,-31.50,CLOSED,0
672235.834,0,0,0,1.000,1.000,1.000,-90.00,180.00,-31.50,CLOSED,0
672235.837,0,0,0,1.000,1.000,1.000,-90.00,180.00,-31.50,CLOSED,0
672235.841,0,0,0,1.000,1.000,1.000,-90.00,180.00,-31.50,CLOSED,0
672235.844,0,0,0,1.000,1.000,1.000,-90.00,180.00,-31.50,CLOSED,0
672235.849,0,0,0,1.000,1.000,1.000,-90.00,180.00,-31.50,CLOSED,0
672235.854,0,0,0,1.000,1.000,1.000,-90.00,180.00,-31.50,CLOSED,0
672235.858,0,0,0,1.000,1.000,1.000,-90.00,180.00,-31.50,CLOSED,0
672235.863,0,0,0,1.000,1.000,1.000,-90.00,180.00,-31.50,CLOSED,0
672235.868,0,0,0,1.000,1.000,1.000,-90.00,180.00,-31.50,CLOSED,0
672235.872,0,0,0,1.000,1.000,1.000,-90.00,180.00,-31.50,CLOSED,0
672235.877,0,0,0,1.000,1.000,1.000,-90.00,180.00,-31.50,CLOSED,0
672235.881,0,0,0,1.000,1.000,1.000,-90.00,180.00,-31.50,CLOSED,0
672235.885,0,0,0,1.000,1.000,1.000,-90.00,180.00,-31.50,CLOSED,0
672235.889,0,0,0,1.000,1.000,1.000,-90.00,180.00,-31.50,CLOSED,0
672235.893,0,0,0,1.000,1.000,1.000,-90.00,180.00,-31.50,CLOSED,0
672235.897,0,0,0,1.000,1.000,1.000,-90.00,180.00,-31.50,CLOSED,0
672235.901,0,0,0,1.000,1.000,1.000,-90.00,180.00,-31.50,CLOSED,0
672235.905,0,0,0,1.000,1.000,1.000,-90.00,180.00,-31.50,CLOSED,0
672235.908,0,0,0,1.000,1.000,1.000,-90.00,180.00,-31.50,CLOSED,0
672235.912,0,0,0,1.000,1.000,1.000,-90.00,180.00,-31.50,CLOSED,0
672235.916,0,0,0,1.000,1.000,1.000,-90.00,180.00,-31.50,CLOSED,0
672235.921,0,0,0,1.000,1.000,1.000,-90.00,180.00,-31.50,CLOSED,0
672235.926,0,0,0,1.000,1.000,1.000,-90.00,180.00,-31.50,CLOSED,0
672235.931,0,0,0,1.000,1.000,1.000,-90.00,180.00,-31.50,CLOSED,0
672235.935,0,0,0,1.000,1.000,1.000,-90.00,180.00,-31.50,CLOSED,0
672235.939,0,0,0,1.000,1.000,1.000,-90.00,180.00,-31.50,CLOSED,0
672235.944,0,0,0,1.000,0.999,1.000,-90.00,180.00,-31.50,CLOSED,0
672235.948,0,0,0,1.000,0.995,1.000,-90.00,180.00,-31.50,CLOSED,0
672235.952,0,0,0,1.000,0.752,1.000,-90.00,180.00,-31.50,CLOSED,0
672235.956,0,0,0,1.000,1.000,1.000,-90.00,180.00,-31.50,CLOSED,0
672235.960,0,0,0,1.000,1.000,1.000,-90.00,180.00,-31.50,CLOSED,0
672235.963,0,0,0,0.998,1.000,1.000,-90.00,180.00,-31.50,CLOSED,0
672235.966,0,0,0,0.993,1.000,1.000,-90.00,180.00,-31.50,CLOSED,0
672235.970,0,0,0,0.993,1.000,1.000,-90.00,180.00,-31.50,CLOSED,0
672235.973,0,0,0,0.988,1.000,1.000,-90.00,180.00,-31.50,CLOSED,0
672235.977,0,0,0,0.978,1.000,1.000,-90.00,180.00,-31.50,CLOSED,0
672235.981,0,0,0,0.966,1.000,1.000,-90.00,180.00,-31.50,CLOSED,0
672235.985,0,0,0,0.957,1.000,1.000,-90.00,180.00,-31.50,CLOSED,0
672235.989,0,0,0,0.943,1.000,0.999,-90.00,180.00,-31.50,CLOSED,0
672235.993,0,0,0,0.899,1.000,0.996,-90.00,180.00,-31.50,CLOSED,0
672235.997,0,0,0,0.800,1.000,0.937,-90.00,180.00,-31.50,CLOSED,0
672236.001,0,0,0,0.792,1.000,0.895,-90.00,180.00,-31.50,CLOSED,0
672236.006,0,0,1,0.995,1.000,0.698,-89.71,180.00,-31.50,CLOSED,0
672236.011,0,0,1,1.000,1.000,0.554,-89.39,180.00,-31.50,CLOSED,1
672236.016,0,0,1,1.000,1.000,0.947,-89.10,180.00,-31.50,CLOSED,0
672236.020,0,0,1,1.000,1.000,0.993,-88.85,180.00,-31.50,CLOSED,0
672236.025,0,0,1,1.000,1.000,1.000,-88.59,180.00,-31.50,CLOSED,0
672236.029,0,0,1,1.000,1.000,1.000,-88.35,180.00,-31.50,CLOSED,0
672236.033,0,0,1,1.000,1.000,1.000,-88.10,180.00,-31.50,CLOSED,0
672236.036,0,0,1,1.000,1.000,1.000,-87.88,180.00,-31.50,CLOSED,0
672236.040,0,0,1,1.000,1.000,1.000,-87.67,180.00,-31.50,CLOSED,0
672236.044,0,0,1,1.000,0.999,1.000,-87.46,180.00,-31.50,CLOSED,0
672236.047,0,0,1,1.000,0.993,1.000,-87.23,180.00,-31.50,CLOSED,0
672236.051,0,0,1,1.000,0.939,1.000,-87.02,180.00,-31.50,CLOSED,0
672236.056,0,0,1,0.996,0.544,1.000,-86.71,180.00,-31.50,CLOSED,0
672236.062,0,0,1,0.997,0.868,1.000,-86.34,180.00,-31.50,CLOSED,0
672236.068,0,0,1,1.000,0.805,1.000,-85.97,180.00,-31.50,CLOSED,0
672236.075,0,0,1,1.000,0.776,1.000,-85.60,180.00,-31.50,CLOSED,0
672236.081,0,0,1,1.000,0.828,1.000,-85.24,180.00,-31.50,CLOSED,0
672236.086,0,0,1,1.000,0.966,1.000,-84.89,180.00,-31.50,CLOSED,0
672236.093,0,0,1,1.000,0.990,1.000,-84.51,180.00,-31.50,CLOSED,0
672236.098,0,0,1,1.000,0.997,1.000,-84.20,180.00,-31.50,CLOSED,0
672236.103,0,0,1,1.000,0.999,1.000,-83.89,180.00,-31.50,CLOSED,0
672236.108,0,0,1,1.000,1.000,1.000,-83.61,180.00,-31.50,CLOSED,0
672236.112,0,0,1,1.000,1.000,1.000,-83.36,180.00,-31.50,CLOSED,1
672236.116,0,0,1,1.000,1.000,1.000,-83.12,180.00,-31.50,CLOSED,0
672236.120,0,0,1,1.000,1.000,1.000,-82.87,180.00,-31.50,CLOSED,0
672236.124,0,0,1,1.000,1.000,1.000,-82.63,180.00,-31.50,CLOSED,0
672236.128,0,0,1,1.000,1.000,1.000,-82.41,180.00,-31.50,CLOSED,0
672236.132,0,0,1,1.000,1.000,1.000,-82.18,180.00,-31.50,CLOSED,0
672236.136,0,0,1,1.000,1.000,1.000,-81.94,180.00,-31.50,CLOSED,0
672236.139,0,0,1,1.000,1.000,1.000,-81.71,180.00,-31.50,CLOSED,0
672236.143,0,0,1,1.000,1.000,1.000,-81.49,180.00,-31.50,CLOSED,0
672236.147,0,0,1,1.000,1.000,1.000,-81.27,180.00,-31.50,CLOSED,0
672236.150,0,0,1,1.000,1.000,1.000,-81.06,180.00,-31.50,CLOSED,0
672236.154,0,0,1,1.000,1.000,1.000,-80.85,180.00,-31.50,CLOSED,0
672236.157,0,0,1,1.000,1.000,1.000,-80.65,180.00,-31.50,CLOSED,0
672236.160,0,0,1,1.000,1.000,1.000,-80.45,180.00,-31.50,CLOSED,0
672236.164,0,0,1,1.000,1.000,1.000,-80.23,180.00,-31.50,CLOSED,0
672236.168,0,0,1,1.000,1.000,1.000,-79.99,180.00,-31.50,CLOSED,0
672236.172,0,0,1,1.000,1.000,1.000,-79.78,180.00,-31.50,CLOSED,0
672236.175,0,0,1,1.000,1.000,1.000,-79.56,180.00,-31.50,CLOSED,0
672236.179,0,0,1,1.000,1.000,1.000,-79.34,180.00,-31.50,CLOSED,0
672236.183,0,0,1,1.000,1.000,1.000,-79.11,180.00,-31.50,CLOSED,0
672236.186,0,0,1,1.000,1.000,1.000,-78.89,180.00,-31.50,CLOSED,0
672236.190,0,0,1,1.000,1.000,1.000,-78.66,180.00,-31.50,CLOSED,0
672236.194,0,0,1,1.000,1.000,1.000,-78.45,180.00,-31.50,CLOSED,0
672236.197,0,0,1,1.000,1.000,1.000,-78.23,180.00,-31.50,CLOSED,0
672236.201,0,0,1,1.000,1.000,1.000,-78.03,180.00,-31.50,CLOSED,0
672236.204,0,0,1,1.000,1.000,1.000,-77.82,180.00,-31.50,CLOSED,0
672236.208,0,0,1,1.000,1.000,1.000,-77.61,180.00,-31.50,CLOSED,0
672236.211,0,0,1,1.000,1.000,1.000,-77.38,180.00,-31.50,CLOSED,0
672236.215,0,0,1,1.000,1.000,1.000,-77.17,180.00,-31.50,CLOSED,1
672236.219,0,0,1,1.000,1.000,1.000,-76.96,180.00,-31.50,CLOSED,0
672236.222,0,0,1,1.000,1.000,1.000,-76.74,180.00,-31.50,CLOSED,0
672236.226,0,0,1,1.000,1.000,1.000,-76.52,180.00,-31.50,CLOSED,0
672236.230,0,0,1,1.000,1.000,1.000,-76.29,180.00,-31.50,CLOSED,0
672236.233,0,0,1,1.000,1.000,1.000,-76.08,180.00,-31.50,CLOSED,0
672236.237,0,0,1,1.000,1.000,1.000,-75.85,180.00,-31.50,CLOSED,0
672236.240,0,0,1,1.000,1.000,1.000,-75.65,180.00,-31.50,CLOSED,0
672236.244,0,0,1,1.000,1.000,1.000,-75.44,180.00,-31.50,CLOSED,0
672236.248,0,0,1,1.000,1.000,1.000,-75.22,180.00,-31.50,CLOSED,0
672236.251,0,0,1,1.000,1.000,1.000,-75.00,180.00,-31.50,CLOSED,0
672236.255,0,0,1,1.000,1.000,1.000,-74.78,180.00,-31.50,CLOSED,0
672236.259,0,0,1,1.000,1.000,1.000,-74.55,180.00,-31.50,CLOSED,0
672236.262,0,0,1,1.000,1.000,1.000,-74.32,180.00,-31.50,CLOSED,0
672236.266,0,0,1,1.000,1.000,1.000,-74.11,180.00,-31.50,CLOSED,0
672236.270,0,0,1,1.000,1.000,1.000,-73.88,180.00,-31.50,CLOSED,0
672236.274,0,0,1,1.000,1.000,1.000,-73.66,180.00,-31.50,CLOSED,0
672236.277,0,0,1,1.000,1.000,1.000,-73.44,180.00,-31.50,CLOSED,0
672236.281,0,0,1,1.000,1.000,1.000,-73.21,180.00,-31.50,CLOSED,0
672236.285,0,0,1,1.000,1.000,1.000,-72.99,180.00,-31.50,CLOSED,0
672236.288,0,0,1,1.000,1.000,1.000,-72.77,180.00,-31.50,CLOSED,0
672236.293,0,0,1,1.000,1.000,1.000,-72.52,180.00,-31.50,CLOSED,0
672236.296,0,0,1,1.000,1.000,1.000,-72.31,180.00,-31.50,CLOSED,0
672236.300,0,0,1,1.000,1.000,1.000,-72.09,180.00,-31.50,CLOSED,0
672236.303,0,0,1,1.000,1.000,1.000,-71.87,180.00,-31.50,CLOSED,0
672236.307,0,0,1,1.000,1.000,1.000,-71.67,180.00,-31.50,CLOSED,0
672236.310,0,0,1,1.000,1.000,1.000,-71.45,180.00,-31.50,CLOSED,0
672236.314,0,0,1,1.000,1.000,1.000,-71.21,180.00,-31.50,CLOSED,0
672236.318,0,0,1,1.000,1.000,1.000,-70.97,180.00,-31.50,CLOSED,1
672236.323,0,0,1,1.000,1.000,1.000,-70.72,180.00,-31.50,CLOSED,0
672236.327,0,0,1,1.000,1.000,1.000,-70.48,180.00,-31.50,CLOSED,0
672236.330,0,0,1,1.000,1.000,1.000,-70.26,180.00,-31.50,CLOSED,0
672236.334,0,0,1,1.000,1.000,1.000,-70.05,180.00,-31.50,CLOSED,0
672236.337,0,0,1,1.000,1.000,1.000,-69.83,180.00,-31.50,CLOSED,0
672236.341,0,0,1,1.000,1.000,1.000,-69.63,180.00,-31.50,CLOSED,0
672236.344,0,0,1,1.000,1.000,1.000,-69.42,180.00,-31.50,CLOSED,0
672236.348,0,0,1,1.000,1.000,1.000,-69.22,180.00,-31.50,CLOSED,0
672236.351,0,0,1,1.000,1.000,1.000,-69.02,180.00,-31.50,CLOSED,0
672236.355,0,0,1,1.000,1.000,1.000,-68.79,180.00,-31.50,CLOSED,0
672236.359,0,0,1,1.000,1.000,1.000,-68.53,180.00,-31.50,CLOSED,0
672236.363,0,0,1,1.000,1.000,1.000,-68.27,180.00,-31.50,CLOSED,0
672236.368,0,0,1,1.000,1.000,1.000,-68.01,180.00,-31.50,CLOSED,0
672236.373,0,0,1,1.000,1.000,1.000,-67.71,180.00,-31.50,CLOSED,0
672236.377,0,0,1,1.000,1.000,1.000,-67.47,180.00,-31.50,CLOSED,0
672236.381,0,0,1,1.000,1.000,1.000,-67.23,180.00,-31.50,CLOSED,0
672236.385,0,0,1,1.000,1.000,1.000,-66.95,180.00,-31.50,CLOSED,0
672236.389,0,0,1,1.000,1.000,1.000,-66.71,180.00,-31.50,CLOSED,0
672236.394,0,0,1,1.000,1.000,1.000,-66.46,180.00,-31.50,CLOSED,0
672236.397,0,0,1,1.000,1.000,1.000,-66.25,180.00,-31.50,CLOSED,0
672236.400,0,0,1,1.000,1.000,1.000,-66.05,180.00,-31.50,CLOSED,0
672236.405,0,0,1,1.000,1.000,1.000,-65.80,180.00,-31.50,CLOSED,0
672236.408,0,0,1,1.000,1.000,1.000,-65.60,180.00,-31.50,CLOSED,0
672236.412,0,0,1,1.000,1.000,1.000,-65.37,180.00,-31.50,CLOSED,0
672236.416,0,0,1,1.000,1.000,1.000,-65.12,180.00,-31.50,CLOSED,0
672236.420,0,0,1,1.000,1.000,1.000,-64.86,180.00,-31.50,CLOSED,1
672236.424,0,0,1,1.000,1.000,1.000,-64.61,180.00,-31.50,CLOSED,0
672236.428,0,0,1,1.000,1.000,1.000,-64.40,180.00,-31.50,CLOSED,0
672236.431,0,0,1,1.000,1.000,1.000,-64.18,180.00,-31.50,CLOSED,0
672236.435,0,0,1,1.000,1.000,1.000,-63.95,180.00,-31.50,CLOSED,0
672236.439,0,0,1,1.000,1.000,1.000,-63.75,180.00,-31.50,CLOSED,0
672236.443,0,0,1,1.000,1.000,1.000,-63.51,180.00,-31.50,CLOSED,0
672236.446,0,0,1,1.000,1.000,1.000,-63.30,180.00,-31.50,CLOSED,0
672236.450,0,0,1,1.000,1.000,1.000,-63.06,180.00,-31.50,CLOSED,0
672236.455,0,0,1,1.000,1.000,1.000,-62.76,180.00,-31.50,CLOSED,0
672236.460,0,0,1,1.000,1.000,1.000,-62.45,180.00,-31.50,CLOSED,0
672236.466,0,0,1,1.000,1.000,1.000,-62.12,180.00,-31.50,CLOSED,0
672236.471,0,0,1,1.000,1.000,1.000,-61.84,180.00,-31.50,CLOSED,0
672236.475,0,0,1,1.000,1.000,1.000,-61.56,180.00,-31.50,CLOSED,0
672236.479,0,0,1,1.000,1.000,1.000,-61.30,180.00,-31.50,CLOSED,0
672236.483,0,0,1,1.000,1.000,1.000,-61.07,180.00,-31.50,CLOSED,0
672236.487,0,0,1,1.000,1.000,1.000,-60.84,180.00,-31.50,CLOSED,0
672236.491,0,0,1,1.000,1.000,1.000,-60.63,180.00,-31.50,CLOSED,0
672236.495,0,0,1,1.000,1.000,1.000,-60.40,180.00,-31.50,CLOSED,0
672236.498,0,0,1,1.000,1.000,1.000,-60.19,180.00,-31.50,CLOSED,0
672236.502,0,0,1,1.000,1.000,1.000,-59.98,180.00,-31.50,CLOSED,0
672236.505,0,0,1,1.000,1.000,1.000,-59.77,180.00,-31.50,CLOSED,0
672236.509,0,0,1,1.000,1.000,1.000,-59.55,180.00,-31.50,CLOSED,0
672236.512,0,0,1,1.000,1.000,1.000,-59.33,180.00,-31.50,CLOSED,0
672236.516,0,0,1,1.000,1.000,1.000,-59.13,180.00,-31.50,CLOSED,0
672236.520,0,0,1,1.000,1.000,1.000,-58.90,180.00,-31.50,CLOSED,0
672236.523,0,0,1,1.000,1.000,1.000,-58.69,180.00,-31.50,CLOSED,1
672236.527,0,0,1,1.000,1.000,1.000,-58.47,180.00,-31.50,CLOSED,0
672236.530,0,0,1,1.000,1.000,1.000,-58.27,180.00,-31.50,CLOSED,0
672236.534,0,0,1,1.000,1.000,1.000,-58.02,180.00,-31.50,CLOSED,0
672236.538,0,0,1,1.000,1.000,1.000,-57.79,180.00,-31.50,CLOSED,0
672236.542,0,0,1,1.000,1.000,1.000,-57.53,180.00,-31.50,CLOSED,0
672236.546,0,0,0,1.000,1.000,1.000,-57.75,180.00,-31.50,CLOSED,0
672236.549,0,0,0,0.999,1.000,1.000,-57.95,180.00,-31.50,CLOSED,0
672236.553,0,0,0,1.000,1.000,1.000,-58.18,180.00,-31.50,CLOSED,0
672236.557,0,0,0,0.999,0.985,1.000,-58.40,180.00,-31.50,CLOSED,0
672236.560,0,0,0,1.000,0.997,0.988,-58.61,180.00,-31.50,CLOSED,0
672236.565,0,0,0,0.997,1.000,0.522,-58.90,180.00,-31.50,CLOSED,0
672236.571,0,0,0,0.988,1.000,0.916,-59.23,180.00,-31.50,CLOSED,0
672236.577,0,0,0,0.988,1.000,0.968,-59.59,180.00,-31.50,CLOSED,0
672236.582,0,0,0,0.984,1.000,0.974,-59.92,180.00,-31.50,CLOSED,0
672236.588,0,0,0,0.990,1.000,0.974,-60.26,180.00,-31.50,CLOSED,0
672236.593,0,0,0,0.993,1.000,0.976,-60.56,180.00,-31.50,CLOSED,0
672236.598,0,0,0,0.994,1.000,0.962,-60.85,180.00,-31.50,CLOSED,0
672236.603,0,0,0,0.996,1.000,0.967,-61.15,180.00,-31.50,CLOSED,0
672236.607,0,0,0,1.000,1.000,0.968,-61.40,180.00,-31.50,CLOSED,0
672236.611,0,0,0,1.000,1.000,0.942,-61.65,180.00,-31.50,CLOSED,0
672236.615,0,0,0,1.000,1.000,0.924,-61.88,180.00,-31.50,CLOSED,0
672236.618,0,0,0,1.000,1.000,0.954,-62.10,180.00,-31.50,CLOSED,0
672236.622,0,0,0,1.000,1.000,0.982,-62.31,180.00,-31.50,CLOSED,0
672236.625,0,0,0,1.000,1.000,0.996,-62.50,180.00,-31.50,CLOSED,1
672236.629,0,0,0,1.000,1.000,1.000,-62.72,180.00,-31.50,CLOSED,0
672236.633,0,0,0,1.000,1.000,1.000,-62.95,180.00,-31.50,CLOSED,0
672236.636,0,0,0,1.000,1.000,1.000,-63.18,180.00,-31.50,CLOSED,0
672236.640,0,0,0,1.000,1.000,1.000,-63.41,180.00,-31.50,CLOSED,0
672236.644,0,0,0,1.000,1.000,1.000,-63.65,180.00,-31.50,CLOSED,0
672236.648,0,0,0,1.000,1.000,1.000,-63.89,180.00,-31.50,CLOSED,0
672236.652,0,0,0,1.000,1.000,1.000,-64.13,180.00,-31.50,CLOSED,0
672236.656,0,0,0,1.000,0.999,1.000,-64.37,180.00,-31.50,CLOSED,0
672236.660,0,0,0,1.000,0.991,1.000,-64.58,180.00,-31.50,CLOSED,0
672236.663,0,0,0,1.000,0.974,1.000,-64.79,180.00,-31.50,CLOSED,0
672236.667,0,0,0,1.000,0.942,1.000,-65.00,180.00,-31.50,CLOSED,0
672236.670,0,0,0,1.000,0.925,1.000,-65.21,180.00,-31.50,CLOSED,0
672236.674,0,0,0,1.000,0.880,1.000,-65.42,180.00,-31.50,CLOSED,0
672236.677,0,0,0,1.000,0.821,1.000,-65.63,180.00,-31.50,CLOSED,0
672236.681,0,0,0,1.000,0.805,1.000,-65.82,180.00,-31.50,CLOSED,0
672236.684,0,0,0,0.999,0.958,1.000,-66.06,180.00,-31.50,CLOSED,0
672236.688,0,0,0,0.999,0.995,1.000,-66.27,180.00,-31.50,CLOSED,0
672236.692,0,0,0,0.999,0.999,1.000,-66.53,180.00,-31.50,CLOSED,0
672236.697,0,0,0,0.998,1.000,1.000,-66.81,180.00,-31.50,CLOSED,0
672236.701,0,0,0,1.000,1.000,1.000,-67.08,180.00,-31.50,CLOSED,0
672236.706,0,0,0,1.000,1.000,1.000,-67.33,180.00,-31.50,CLOSED,0
672236.709,0,0,0,1.000,1.000,1.000,-67.56,180.00,-31.50,CLOSED,0
672236.714,0,0,0,1.000,1.000,1.000,-67.81,180.00,-31.50,CLOSED,0
672236.717,0,0,0,1.000,1.000,1.000,-68.03,180.00,-31.50,CLOSED,0
672236.721,0,0,0,1.000,1.000,1.000,-68.25,180.00,-31.50,CLOSED,0
672236.724,0,0,0,1.000,1.000,1.000,-68.45,180.00,-31.50,CLOSED,0
672236.728,0,0,0,1.000,1.000,1.000,-68.66,180.00,-31.50,CLOSED,1
672236.732,0,0,0,1.000,1.000,1.000,-68.89,180.00,-31.50,CLOSED,0
672236.735,0,0,0,1.000,1.000,1.000,-69.10,180.00,-31.50,CLOSED,0
672236.739,0,0,0,1.000,1.000,1.000,-69.30,180.00,-31.50,CLOSED,0
672236.742,0,0,0,1.000,1.000,1.000,-69.54,180.00,-31.50,CLOSED,0
672236.747,0,0,0,1.000,1.000,1.000,-69.80,180.00,-31.50,CLOSED,0
672236.751,0,0,0,1.000,1.000,1.000,-70.04,180.00,-31.50,CLOSED,0
672236.755,0,0,0,1.000,1.000,1.000,-70.27,180.00,-31.50,CLOSED,0
672236.758,0,0,0,1.000,1.000,1.000,-70.49,180.00,-31.50,CLOSED,0
672236.762,0,0,0,1.000,1.000,1.000,-70.74,180.00,-31.50,CLOSED,0
672236.766,0,0,0,1.000,1.000,1.000,-70.98,180.00,-31.50,CLOSED,0
672236.770,0,0,0,1.000,1.000,1.000,-71.20,180.00,-31.50,CLOSED,0
672236.773,0,0,0,1.000,1.000,1.000,-71.39,180.00,-31.50,CLOSED,0
672236.777,0,0,0,1.000,1.000,1.000,-71.60,180.00,-31.50,CLOSED,0
672236.781,0,0,0,1.000,1.000,1.000,-71.83,180.00,-31.50,CLOSED,0
672236.784,0,0,0,1.000,1.000,1.000,-72.05,180.00,-31.50,CLOSED,0
672236.788,0,0,0,1.000,1.000,1.000,-72.28,180.00,-31.50,CLOSED,0
672236.792,0,0,0,1.000,1.000,1.000,-72.49,180.00,-31.50,CLOSED,0
672236.795,0,0,0,1.000,1.000,1.000,-72.71,180.00,-31.50,CLOSED,0
672236.799,0,0,0,1.000,1.000,1.000,-72.95,180.00,-31.50,CLOSED,0
672236.804,0,0,0,1.000,1.000,1.000,-73.23,180.00,-31.50,CLOSED,0
672236.808,0,0,0,1.000,1.000,1.000,-73.47,180.00,-31.50,CLOSED,0
672236.812,0,0,0,1.000,1.000,1.000,-73.74,180.00,-31.50,CLOSED,0
672236.816,0,0,0,1.000,1.000,1.000,-73.97,180.00,-31.50,CLOSED,0
672236.820,0,0,0,1.000,1.000,1.000,-74.20,180.00,-31.50,CLOSED,0
672236.824,0,0,0,1.000,1.000,1.000,-74.43,180.00,-31.50,CLOSED,0
672236.827,0,0,0,1.000,1.000,1.000,-74.63,180.00,-31.50,CLOSED,0
672236.830,0,0,0,1.000,1.000,1.000,-74.82,180.00,-31.50,CLOSED,1
672236.834,0,0,0,1.000,1.000,1.000,-75.02,180.00,-31.50,CLOSED,0
672236.838,0,0,0,1.000,1.000,1.000,-75.27,180.00,-31.50,CLOSED,0
672236.841,0,0,0,1.000,1.000,1.000,-75.47,180.00,-31.50,CLOSED,0
672236.845,0,0,0,1.000,1.000,1.000,-75.68,180.00,-31.50,CLOSED,0
672236.848,0,0,0,1.000,1.000,1.000,-75.90,180.00,-31.50,CLOSED,0
672236.853,0,0,0,1.000,1.000,1.000,-76.18,180.00,-31.50,CLOSED,0
672236.857,0,0,0,1.000,1.000,1.000,-76.44,180.00,-31.50,CLOSED,0
672236.861,0,0,0,1.000,1.000,1.000,-76.67,180.00,-31.50,CLOSED,0
672236.865,0,0,0,1.000,1.000,1.000,-76.89,180.00,-31.50,CLOSED,0
672236.869,0,0,0,1.000,1.000,1.000,-77.13,180.00,-31.50,CLOSED,0
672236.873,0,0,0,1.000,1.000,1.000,-77.38,180.00,-31.50,CLOSED,0
672236.877,0,0,0,1.000,1.000,1.000,-77.59,180.00,-31.50,CLOSED,0
672236.880,0,0,0,1.000,1.000,1.000,-77.81,180.00,-31.50,CLOSED,0
672236.884,0,0,0,1.000,1.000,1.000,-78.03,180.00,-31.50,CLOSED,0
672236.887,0,0,0,1.000,1.000,1.000,-78.23,180.00,-31.50,CLOSED,0
672236.891,0,0,0,1.000,1.000,1.000,-78.44,180.00,-31.50,CLOSED,0
672236.895,0,0,0,1.000,1.000,1.000,-78.68,180.00,-31.50,CLOSED,0
672236.898,0,0,0,1.000,1.000,1.000,-78.87,180.00,-31.50,CLOSED,0
672236.902,0,0,0,1.000,1.000,1.000,-79.10,180.00,-31.50,CLOSED,0
672236.905,0,0,0,1.000,1.000,1.000,-79.31,180.00,-31.50,CLOSED,0
672236.909,0,0,0,1.000,1.000,1.000,-79.51,180.00,-31.50,CLOSED,0
672236.912,0,0,0,1.000,1.000,1.000,-79.71,180.00,-31.50,CLOSED,0
672236.916,0,0,0,1.000,1.000,1.000,-79.98,180.00,-31.50,CLOSED,0
672236.921,0,0,0,1.000,1.000,1.000,-80.27,180.00,-31.50,CLOSED,0
672236.926,0,0,0,1.000,1.000,1.000,-80.56,180.00,-31.50,CLOSED,0
672236.931,0,0,0,1.000,1.000,1.000,-80.88,180.00,-31.50,CLOSED,1
672236.937,0,0,0,1.000,1.000,1.000,-81.20,180.00,-31.50,CLOSED,0
672236.942,0,0,0,1.000,1.000,1.000,-81.50,180.00,-31.50,CLOSED,0
672236.946,0,0,0,1.000,1.000,1.000,-81.74,180.00,-31.50,CLOSED,0
672236.950,0,0,0,1.000,1.000,1.000,-81.97,180.00,-31.50,CLOSED,0
672236.954,0,0,0,1.000,1.000,1.000,-82.22,180.00,-31.50,CLOSED,0
672236.958,0,0,0,1.000,1.000,1.000,-82.45,180.00,-31.50,CLOSED,0
672236.961,0,0,0,1.000,1.000,1.000,-82.66,180.00,-31.50,CLOSED,0
672236.965,0,0,0,1.000,1.000,1.000,-82.91,180.00,-31.50,CLOSED,0
672236.969,0,0,0,1.000,1.000,1.000,-83.11,180.00,-31.50,CLOSED,0
672236.972,0,0,0,1.000,1.000,1.000,-83.33,180.00,-31.50,CLOSED,0
672236.976,0,0,0,1.000,1.000,1.000,-83.56,180.00,-31.50,CLOSED,0
672236.981,0,0,0,1.000,1.000,1.000,-83.83,180.00,-31.50,CLOSED,0
672236.985,0,0,0,1.000,1.000,1.000,-84.08,180.00,-31.50,CLOSED,0
672236.989,0,0,0,1.000,1.000,1.000,-84.32,180.00,-31.50,CLOSED,0
672236.993,0,0,0,1.000,1.000,1.000,-84.56,180.00,-31.50,CLOSED,0
672236.997,0,0,0,1.000,1.000,1.000,-84.83,180.00,-31.50,CLOSED,0
672237.001,0,0,0,1.000,1.000,1.000,-85.07,180.00,-31.50,CLOSED,0
672237.005,0,0,0,1.000,1.000,1.000,-85.32,180.00,-31.50,CLOSED,0
672237.009,0,0,0,1.000,1.000,1.000,-85.55,180.00,-31.50,CLOSED,0
672237.014,0,0,0,1.000,1.000,1.000,-85.82,180.00,-31.50,CLOSED,0
672237.017,0,0,0,1.000,1.000,1.000,-86.03,180.00,-31.50,CLOSED,0
672237.021,0,0,0,1.000,1.000,1.000,-86.25,180.00,-31.50,CLOSED,0
672237.025,0,0,0,1.000,1.000,1.000,-86.47,180.00,-31.50,CLOSED,0
672237.028,0,0,0,1.000,1.000,1.000,-86.68,180.00,-31.50,CLOSED,0
672237.032,0,0,0,1.000,1.000,1.000,-86.89,180.00,-31.50,CLOSED,1
672237.035,0,0,0,1.000,1.000,1.000,-87.11,180.00,-31.50,CLOSED,0
672237.039,0,0,0,1.000,1.000,1.000,-87.34,180.00,-31.50,CLOSED,0
672237.043,0,0,0,1.000,1.000,1.000,-87.57,180.00,-31.50,CLOSED,0
672237.047,0,0,0,1.000,1.000,1.000,-87.80,180.00,-31.50,CLOSED,0
672237.051,0,0,0,1.000,1.000,1.000,-88.03,180.00,-31.50,CLOSED,0
672237.055,0,0,0,1.000,1.000,1.000,-88.27,180.00,-31.50,CLOSED,0
672237.058,0,0,0,1.000,1.000,1.000,-88.50,180.00,-31.50,CLOSED,0
672237.062,0,0,0,1.000,0.999,1.000,-88.72,180.00,-31.50,CLOSED,0
672237.066,0,0,0,1.000,0.995,1.000,-88.95,180.00,-31.50,CLOSED,0
672237.070,0,0,0,1.000,0.975,1.000,-89.17,180.00,-31.50,CLOSED,0
672237.073,0,0,0,1.000,0.857,0.999,-89.40,180.00,-31.50,CLOSED,0
672237.077,0,0,0,1.000,0.741,0.998,-89.62,180.00,-31.50,CLOSED,0
672237.081,0,0,0,1.000,0.639,0.992,-89.84,180.00,-31.50,CLOSED,0
672237.084,0,0,0,0.999,0.914,0.968,-90.00,180.00,-31.50,CLOSED,0
672237.088,0,0,0,0.999,0.976,0.877,-90.00,180.00,-31.50,CLOSED,0
672237.092,0,0,0,0.999,0.990,0.686,-90.00,180.00,-31.50,CLOSED,0
672237.096,0,0,0,0.998,0.996,0.554,-90.00,180.00,-31.50,CLOSED,0
672237.101,0,1,0,0.999,0.992,0.619,-90.00,179.72,-31.50,CLOSED,0
672237.106,0,1,0,0.999,0.995,0.804,-90.00,179.43,-31.50,CLOSED,0
672237.110,0,1,1,0.999,1.000,0.941,-89.71,179.14,-31.50,CLOSED,0
672237.115,0,1,1,1.000,1.000,0.996,-89.42,178.85,-31.50,CLOSED,0
672237.120,0,1,1,1.000,1.000,0.996,-89.14,178.57,-31.50,CLOSED,0
672237.124,0,1,1,1.000,1.000,0.999,-88.88,178.31,-31.50,CLOSED,0
672237.128,0,1,1,1.000,1.000,0.999,-88.64,178.07,-31.50,CLOSED,0
672237.133,0,1,1,1.000,1.000,0.998,-88.39,177.81,-31.50,CLOSED,1
672237.136,0,1,1,1.000,1.000,0.998,-88.16,177.59,-31.50,CLOSED,0
672237.140,0,1,1,1.000,1.000,0.995,-87.94,177.37,-31.50,CLOSED,0
672237.143,0,1,1,1.000,1.000,0.988,-87.73,177.16,-31.50,CLOSED,0
672237.147,0,1,1,1.000,1.000,0.554,-87.52,176.95,-31.50,CLOSED,0
672237.150,0,1,1,1.000,0.998,0.952,-87.33,176.76,-31.50,CLOSED,0
672237.154,0,1,1,1.000,0.994,0.942,-87.11,176.54,-31.50,CLOSED,0
672237.157,0,1,1,1.000,0.986,0.952,-86.90,176.33,-31.50,CLOSED,0
672237.162,0,1,1,1.000,0.926,0.977,-86.65,176.08,-31.50,CLOSED,0
672237.166,0,1,1,1.000,0.668,0.982,-86.36,175.79,-31.50,CLOSED,0
672237.171,0,1,1,1.000,0.990,0.994,-86.10,175.53,-31.50,CLOSED,0
672237.175,0,1,1,1.000,1.000,0.994,-85.85,175.28,-31.50,CLOSED,0
672237.179,0,1,1,1.000,1.000,0.995,-85.58,175.01,-31.50,CLOSED,0
672237.184,0,1,1,1.000,1.000,0.979,-85.31,174.74,-31.50,CLOSED,0
672237.188,0,1,1,1.000,1.000,0.965,-85.05,174.48,-31.50,CLOSED,0
672237.192,0,1,1,1.000,1.000,0.951,-84.83,174.26,-31.50,CLOSED,0
672237.196,0,1,1,1.000,0.998,0.823,-84.60,174.03,-31.50,CLOSED,0
672237.200,0,1,1,1.000,0.991,0.642,-84.36,173.79,-31.50,CLOSED,0
672237.204,0,1,1,1.000,0.915,0.775,-84.13,173.56,-31.50,CLOSED,0
672237.208,0,1,1,1.000,0.762,0.873,-83.88,173.31,-31.50,CLOSED,0
672237.212,0,1,1,1.000,0.502,0.918,-83.63,173.06,-31.50,CLOSED,0
672237.217,0,1,1,1.000,0.719,0.947,-83.32,172.75,-31.50,CLOSED,0
672237.221,0,1,1,1.000,0.862,0.970,-83.08,172.51,-31.50,CLOSED,0
672237.225,0,1,1,1.000,0.974,0.993,-82.83,172.26,-31.50,CLOSED,0
672237.229,0,1,1,1.000,0.996,0.998,-82.59,172.02,-31.50,CLOSED,0
672237.233,0,1,1,1.000,0.999,0.999,-82.36,171.79,-31.50,CLOSED,1
672237.237,0,1,1,1.000,1.000,1.000,-82.11,171.54,-31.50,CLOSED,0
672237.241,0,1,1,1.000,1.000,1.000,-81.90,171.33,-31.50,CLOSED,0
672237.244,0,1,1,1.000,1.000,1.000,-81.68,171.11,-31.50,CLOSED,0
672237.248,0,1,1,1.000,1.000,1.000,-81.44,170.87,-31.50,CLOSED,0
