t,hand,elbow,shoulder,p_hand,p_elbow,p_shoulder,J2,J3,J6,grip_state,cmd_sent
671222.892,0,0,0,0.805,1.000,1.000,-90.00,180.00,0.00,OPEN,0
671222.908,0,0,0,0.711,1.000,1.000,-90.00,180.00,0.00,OPEN,0
671222.926,0,0,0,0.996,1.000,1.000,-90.00,180.00,0.00,OPEN,0
671222.977,0,0,0,1.000,1.000,1.000,-90.00,180.00,0.00,OPEN,0
671223.029,0,0,0,1.000,1.000,1.000,-90.00,180.00,0.00,OPEN,0
671223.075,0,0,0,1.000,1.000,1.000,-90.00,180.00,0.00,OPEN,0
671223.128,0,0,0,1.000,1.000,1.000,-90.00,180.00,0.00,OPEN,0
671223.175,0,0,0,1.000,1.000,1.000,-90.00,180.00,0.00,OPEN,0
671223.226,0,0,0,1.000,1.000,1.000,-90.00,180.00,0.00,OPEN,0
671223.276,0,0,0,1.000,1.000,1.000,-90.00,180.00,0.00,OPEN,0
671223.327,0,0,0,1.000,1.000,1.000,-90.00,180.00,0.00,OPEN,0
671223.376,0,0,0,1.000,1.000,1.000,-90.00,180.00,0.00,OPEN,0
671223.425,0,0,0,1.000,1.000,1.000,-90.00,180.00,0.00,OPEN,0
671223.475,0,0,0,1.000,1.000,1.000,-90.00,180.00,0.00,OPEN,0
671223.525,1,0,0,1.000,1.000,1.000,-90.00,180.00,0.00,OPEN,0
671223.575,1,0,0,1.000,1.000,1.000,-90.00,180.00,0.00,OPEN,0
671223.625,1,0,0,1.000,1.000,1.000,-90.00,180.00,0.00,OPEN,0
671223.675,1,0,0,1.000,1.000,1.000,-90.00,180.00,0.00,OPEN,0
671223.726,1,0,0,1.000,1.000,1.000,-90.00,180.00,0.00,OPEN,0
671223.775,1,0,0,1.000,1.000,1.000,-90.00,180.00,0.00,OPEN,0
671223.825,1,0,0,1.000,1.000,1.000,-90.00,180.00,0.00,OPEN,0
671223.875,1,0,0,1.000,1.000,1.000,-90.00,180.00,0.00,OPEN,0
671223.925,1,0,0,1.000,1.000,1.000,-90.00,180.00,0.00,OPEN,0
671223.977,1,0,0,1.000,1.000,1.000,-90.00,180.00,0.00,OPEN,0
671224.025,1,0,0,1.000,1.000,1.000,-90.00,180.00,0.00,OPEN,0
671224.080,1,0,0,1.000,1.000,1.000,-90.00,180.00,0.00,OPEN,0
671224.125,1,0,0,1.000,1.000,1.000,-90.00,180.00,0.00,OPEN,0
671224.176,1,0,0,1.000,1.000,1.000,-90.00,180.00,0.00,OPEN,0
671224.225,1,0,0,1.000,1.000,1.000,-90.00,180.00,0.00,OPEN,0
671224.275,1,0,0,1.000,1.000,1.000,-90.00,180.00,0.00,OPEN,0
671224.325,1,0,0,1.000,1.000,1.000,-90.00,180.00,0.00,OPEN,0
671224.375,1,0,0,1.000,1.000,1.000,-90.00,180.00,0.00,OPEN,0
671224.425,1,0,0,1.000,1.000,1.000,-90.00,180.00,0.00,OPEN,0
671224.477,1,0,0,1.000,1.000,1.000,-90.00,180.00,0.00,OPEN,0
671224.526,1,0,0,1.000,1.000,1.000,-90.00,180.00,0.00,OPEN,0
671224.575,1,0,0,1.000,1.000,1.000,-90.00,180.00,0.00,OPEN,0
671224.625,1,0,0,1.000,1.000,1.000,-90.00,180.00,0.00,OPEN,0
671224.675,1,0,0,1.000,1.000,1.000,-90.00,180.00,0.00,OPEN,0
671224.725,1,0,0,1.000,1.000,1.000,-90.00,180.00,0.00,OPEN,0
671224.776,1,0,0,1.000,1.000,1.000,-90.00,180.00,0.00,OPEN,0
671224.825,1,0,0,1.000,1.000,1.000,-90.00,180.00,0.00,OPEN,0
671224.875,1,0,0,1.000,1.000,1.000,-90.00,180.00,0.00,OPEN,0
671224.926,1,0,0,1.000,1.000,1.000,-90.00,180.00,0.00,OPEN,0
671224.975,1,0,0,1.000,1.000,1.000,-90.00,180.00,0.00,OPEN,0
671225.025,1,0,0,1.000,1.000,1.000,-90.00,180.00,0.00,OPEN,0
671225.076,1,0,0,1.000,1.000,1.000,-90.00,180.00,0.00,OPEN,0
671225.126,1,0,0,1.000,1.000,1.000,-90.00,180.00,0.00,OPEN,0
671225.175,1,0,0,1.000,1.000,1.000,-90.00,180.00,0.00,OPEN,0
671225.225,1,0,0,1.000,1.000,1.000,-90.00,180.00,0.00,OPEN,0
671225.275,1,0,0,1.000,1.000,1.000,-90.00,180.00,0.00,OPEN,0
671225.327,1,0,0,1.000,1.000,1.000,-90.00,180.00,0.00,OPEN,0
671225.375,1,0,0,1.000,1.000,1.000,-90.00,180.00,0.00,OPEN,0
671225.426,1,0,0,1.000,1.000,1.000,-90.00,180.00,0.00,OPEN,0
671225.475,1,0,0,1.000,1.000,1.000,-90.00,180.00,0.00,OPEN,0
671225.525,1,0,0,1.000,1.000,1.000,-90.00,180.00,0.00,OPEN,0
671225.576,1,0,0,1.000,1.000,1.000,-90.00,180.00,0.00,OPEN,0
671225.626,1,0,0,1.000,1.000,1.000,-90.00,180.00,0.00,OPEN,0
671225.675,1,0,0,1.000,1.000,1.000,-90.00,180.00,0.00,OPEN,0
671225.727,1,0,0,1.000,1.000,1.000,-90.00,180.00,0.00,OPEN,0
671225.775,1,0,0,1.000,1.000,1.000,-90.00,180.00,0.00,OPEN,0
671225.825,1,0,0,1.000,1.000,1.000,-90.00,180.00,0.00,OPEN,0
671225.875,1,0,0,1.000,1.000,1.000,-90.00,180.00,0.00,OPEN,0
671225.925,1,0,0,1.000,1.000,1.000,-90.00,180.00,0.00,OPEN,0
671225.977,1,0,0,1.000,1.000,1.000,-90.00,180.00,0.00,OPEN,0
671226.025,1,0,0,1.000,1.000,1.000,-90.00,180.00,0.00,OPEN,0
671226.075,1,0,0,1.000,1.000,1.000,-90.00,180.00,0.00,OPEN,0
671226.125,1,0,0,1.000,1.000,1.000,-90.00,180.00,0.00,OPEN,0
671226.175,1,0,0,1.000,1.000,1.000,-90.00,180.00,0.00,OPEN,0
671226.225,1,0,0,1.000,1.000,1.000,-90.00,180.00,0.00,OPEN,0
671226.275,1,0,0,1.000,1.000,1.000,-90.00,180.00,0.00,OPEN,0
671226.325,1,0,0,1.000,1.000,1.000,-90.00,180.00,0.00,OPEN,0
671226.374,1,0,0,1.000,1.000,1.000,-90.00,180.00,0.00,OPEN,0
671226.425,1,0,0,1.000,1.000,1.000,-90.00,180.00,0.00,OPEN,0
671226.475,1,0,0,1.000,1.000,1.000,-90.00,180.00,0.00,OPEN,0
671226.540,1,0,0,1.000,1.000,1.000,-90.00,180.00,0.00,OPEN,0
671226.583,1,0,0,1.000,1.000,1.000,-90.00,180.00,0.00,OPEN,0
671226.625,1,0,0,1.000,1.000,1.000,-90.00,180.00,0.00,OPEN,0
671226.675,1,0,0,1.000,1.000,1.000,-90.00,180.00,0.00,OPEN,0
671226.724,1,0,0,1.000,1.000,1.000,-90.00,180.00,0.00,OPEN,0
671226.775,1,0,0,1.000,1.000,1.000,-90.00,180.00,0.00,OPEN,0
671226.824,1,0,0,1.000,1.000,1.000,-90.00,180.00,0.00,OPEN,0
671226.875,1,0,0,1.000,1.000,1.000,-90.00,180.00,0.00,OPEN,0
671226.930,1,0,0,1.000,1.000,1.000,-90.00,180.00,0.00,OPEN,0
671226.976,1,0,0,1.000,1.000,1.000,-90.00,180.00,0.00,OPEN,0
671227.025,1,0,0,1.000,1.000,1.000,-90.00,180.00,0.00,OPEN,0
671227.075,1,0,0,1.000,1.000,1.000,-90.00,180.00,0.00,OPEN,0
671227.124,1,0,0,1.000,1.000,1.000,-90.00,180.00,0.00,OPEN,0
671227.175,1,0,0,1.000,1.000,1.000,-90.00,180.00,0.00,OPEN,0
671227.225,1,0,0,1.000,1.000,1.000,-90.00,180.00,0.00,OPEN,0
671227.275,1,0,0,1.000,1.000,1.000,-90.00,180.00,0.00,OPEN,0
671227.325,1,0,0,1.000,1.000,1.000,-90.00,180.00,0.00,OPEN,0
671227.374,1,0,0,1.000,1.000,1.000,-90.00,180.00,0.00,OPEN,0
671227.425,1,0,0,1.000,1.000,1.000,-90.00,180.00,0.00,OPEN,0
671227.475,1,0,0,1.000,1.000,1.000,-90.00,180.00,0.00,OPEN,0
671227.525,1,0,0,1.000,1.000,1.000,-90.00,180.00,0.00,OPEN,0
671227.574,1,0,0,1.000,1.000,1.000,-90.00,180.00,0.00,OPEN,0
671227.625,1,0,0,1.000,1.000,1.000,-90.00,180.00,0.00,OPEN,0
671227.675,1,0,0,1.000,1.000,1.000,-90.00,180.00,0.00,OPEN,0
671227.725,1,0,0,1.000,1.000,1.000,-90.00,180.00,0.00,OPEN,0
671227.775,1,0,0,1.000,1.000,1.000,-90.00,180.00,0.00,OPEN,0
671227.853,1,0,0,1.000,1.000,1.000,-90.00,180.00,0.00,OPEN,0
671227.880,1,0,0,1.000,1.000,1.000,-90.00,180.00,0.00,OPEN,0
671227.925,1,0,0,1.000,1.000,1.000,-90.00,180.00,0.00,OPEN,0
671227.975,1,0,0,1.000,1.000,1.000,-90.00,180.00,0.00,OPEN,0
671228.025,1,0,0,1.000,0.999,1.000,-90.00,180.00,0.00,OPEN,0
671228.075,1,0,0,1.000,0.997,1.000,-90.00,180.00,0.00,OPEN,0
671228.125,1,0,0,1.000,0.994,1.000,-90.00,180.00,0.00,OPEN,0
671228.175,1,0,0,1.000,0.998,1.000,-90.00,180.00,0.00,OPEN,0
671228.225,1,0,0,1.000,0.999,1.000,-90.00,180.00,0.00,OPEN,0
671228.275,1,0,0,1.000,1.000,1.000,-90.00,180.00,0.00,OPEN,0
671228.325,1,0,0,1.000,1.000,1.000,-90.00,180.00,0.00,OPEN,0
671228.375,1,0,0,1.000,1.000,1.000,-90.00,180.00,0.00,OPEN,0
671228.425,1,0,0,1.000,1.000,1.000,-90.00,180.00,0.00,OPEN,0
671228.474,1,0,0,1.000,1.000,1.000,-90.00,180.00,0.00,OPEN,0
671228.525,1,0,0,1.000,1.000,1.000,-90.00,180.00,0.00,OPEN,0
671228.575,1,0,0,1.000,1.000,1.000,-90.00,180.00,0.00,OPEN,0
671228.625,1,0,0,1.000,1.000,1.000,-90.00,180.00,0.00,OPEN,0
671228.674,1,0,0,1.000,1.000,1.000,-90.00,180.00,0.00,OPEN,0
671228.725,1,0,0,0.540,1.000,1.000,-90.00,180.00,0.00,OPEN,0
671228.774,1,0,0,0.866,1.000,1.000,-90.00,180.00,0.00,OPEN,0
671228.825,1,0,0,0.570,1.000,1.000,-90.00,180.00,0.00,OPEN,0
671228.888,1,0,0,0.697,1.000,1.000,-90.00,180.00,0.00,OPEN,0
671228.926,1,0,0,0.604,1.000,1.000,-90.00,180.00,0.00,OPEN,0
671228.975,1,0,0,0.676,1.000,1.000,-90.00,180.00,0.00,OPEN,0
671229.025,1,0,0,0.688,1.000,1.000,-90.00,180.00,0.00,OPEN,0
671229.075,1,0,0,0.960,1.000,1.000,-90.00,180.00,0.00,OPEN,0
671229.125,1,0,0,1.000,1.000,1.000,-90.00,180.00,0.00,OPEN,0
671229.175,1,0,0,1.000,1.000,1.000,-90.00,180.00,0.00,OPEN,0
671229.225,1,0,0,1.000,1.000,1.000,-90.00,180.00,0.00,OPEN,0
671229.275,0,0,0,1.000,1.000,1.000,-90.00,180.00,0.00,OPEN,0
671229.325,0,0,0,1.000,1.000,1.000,-90.00,180.00,0.00,OPEN,0
671229.375,0,0,0,1.000,1.000,1.000,-90.00,180.00,0.00,OPEN,0
671229.424,0,0,0,1.000,1.000,1.000,-90.00,180.00,0.00,OPEN,0
671229.475,0,0,0,1.000,1.000,1.000,-90.00,180.00,0.00,OPEN,0
671229.525,0,0,0,1.000,1.000,1.000,-90.00,180.00,0.00,OPEN,0
671229.575,0,0,0,1.000,1.000,1.000,-90.00,180.00,0.00,OPEN,0
671229.625,0,0,0,1.000,1.000,1.000,-90.00,180.00,0.00,OPEN,0
671229.675,0,0,0,1.000,1.000,1.000,-90.00,180.00,0.00,OPEN,0
671229.725,0,0,0,1.000,1.000,1.000,-90.00,180.00,0.00,OPEN,0
671229.775,0,0,0,1.000,1.000,1.000,-90.00,180.00,0.00,OPEN,0
671229.825,0,0,0,1.000,1.000,1.000,-90.00,180.00,0.00,OPEN,0
671229.875,0,0,0,1.000,1.000,1.000,-90.00,180.00,0.00,OPEN,0
671229.924,0,0,0,1.000,1.000,1.000,-90.00,180.00,0.00,OPEN,0
671229.975,0,0,0,1.000,1.000,1.000,-90.00,180.00,0.00,OPEN,0
671230.025,0,0,0,1.000,1.000,1.000,-90.00,180.00,0.00,OPEN,0
671230.076,0,0,0,1.000,1.000,1.000,-90.00,180.00,0.00,OPEN,0
671230.125,0,0,0,1.000,1.000,1.000,-90.00,180.00,0.00,OPEN,0
671230.174,0,0,0,1.000,1.000,1.000,-90.00,180.00,0.00,OPEN,0
671230.225,0,0,0,1.000,1.000,1.000,-90.00,180.00,0.00,OPEN,0
671230.275,0,0,0,1.000,1.000,1.000,-90.00,180.00,0.00,OPEN,0
671230.325,0,0,0,1.000,1.000,1.000,-90.00,180.00,0.00,OPEN,0
671230.374,0,0,0,1.000,1.000,1.000,-90.00,180.00,0.00,OPEN,0
671230.427,0,0,0,1.000,1.000,1.000,-90.00,180.00,0.00,OPEN,0
671230.475,0,0,0,0.999,1.000,1.000,-90.00,180.00,0.00,OPEN,0
671230.525,0,0,0,1.000,1.000,1.000,-90.00,180.00,0.00,OPEN,0
671230.587,0,0,0,1.000,1.000,1.000,-90.00,180.00,0.00,OPEN,0
671230.634,0,0,0,1.000,1.000,1.000,-90.00,180.00,0.00,OPEN,0
671230.675,0,0,0,1.000,1.000,1.000,-90.00,180.00,0.00,OPEN,0
671230.725,0,0,0,1.000,1.000,1.000,-90.00,180.00,0.00,OPEN,0
671230.775,0,0,0,1.000,1.000,1.000,-90.00,180.00,0.00,OPEN,0
671230.824,0,0,0,1.000,1.000,1.000,-90.00,180.00,0.00,OPEN,0
671230.875,0,0,0,1.000,1.000,1.000,-90.00,180.00,0.00,OPEN,0
671230.924,0,0,0,1.000,1.000,1.000,-90.00,180.00,0.00,OPEN,0
671230.974,0,0,0,1.000,1.000,1.000,-90.00,180.00,0.00,OPEN,0
671231.025,0,0,0,1.000,1.000,1.000,-90.00,180.00,0.00,OPEN,0
671231.075,0,0,0,1.000,1.000,1.000,-90.00,180.00,0.00,OPEN,0
671231.124,0,0,0,1.000,1.000,1.000,-90.00,180.00,0.00,OPEN,0
671231.175,0,0,0,1.000,1.000,1.000,-90.00,180.00,0.00,OPEN,0
671231.225,0,0,0,1.000,1.000,1.000,-90.00,180.00,0.00,OPEN,0
671231.275,0,0,0,1.000,1.000,1.000,-90.00,180.00,0.00,OPEN,0
671231.325,0,0,0,1.000,1.000,1.000,-90.00,180.00,0.00,OPEN,0
671231.375,0,0,0,1.000,1.000,1.000,-90.00,180.00,0.00,OPEN,0
671231.424,0,0,0,0.999,1.000,1.000,-90.00,180.00,0.00,OPEN,0
671231.475,0,0,0,1.000,1.000,1.000,-90.00,180.00,0.00,OPEN,0
671231.524,0,0,0,1.000,1.000,1.000,-90.00,180.00,0.00,OPEN,0
671231.575,0,0,0,1.000,1.000,1.000,-90.00,180.00,0.00,OPEN,0
671231.624,0,0,0,1.000,1.000,1.000,-90.00,180.00,0.00,OPEN,0
671231.674,0,0,0,1.000,1.000,1.000,-90.00,180.00,0.00,OPEN,0
671231.725,0,0,0,1.000,1.000,1.000,-90.00,180.00,0.00,OPEN,0
671231.775,0,0,0,1.000,1.000,1.000,-90.00,180.00,0.00,OPEN,0
671231.825,0,0,0,1.000,1.000,1.000,-90.00,180.00,0.00,OPEN,0
671231.875,0,0,0,1.000,1.000,1.000,-90.00,180.00,0.00,OPEN,0
671231.925,0,0,0,1.000,1.000,1.000,-90.00,180.00,0.00,OPEN,0
671231.974,0,0,0,1.000,1.000,1.000,-90.00,180.00,0.00,OPEN,0
671232.025,0,0,0,1.000,1.000,1.000,-90.00,180.00,0.00,OPEN,0
671232.075,0,0,0,1.000,1.000,1.000,-90.00,180.00,0.00,OPEN,0
671232.125,0,0,0,1.000,1.000,1.000,-90.00,180.00,0.00,OPEN,0
671232.197,0,0,0,0.999,1.000,1.000,-90.00,180.00,0.00,OPEN,0
671232.228,0,0,0,1.000,1.000,1.000,-90.00,180.00,0.00,OPEN,0
671232.275,0,0,0,1.000,1.000,1.000,-90.00,180.00,0.00,OPEN,0
671232.325,0,0,0,1.000,1.000,1.000,-90.00,180.00,0.00,OPEN,0
671232.375,0,0,0,1.000,1.000,1.000,-90.00,180.00,0.00,OPEN,0
671232.425,0,0,0,1.000,1.000,1.000,-90.00,180.00,0.00,OPEN,0
671232.475,0,0,0,1.000,1.000,1.000,-90.00,180.00,0.00,OPEN,0
671232.524,0,0,0,1.000,1.000,1.000,-90.00,180.00,0.00,OPEN,0
671232.575,0,0,0,1.000,1.000,1.000,-90.00,180.00,0.00,OPEN,0
671232.624,0,0,0,1.000,1.000,1.000,-90.00,180.00,0.00,OPEN,0
671232.675,0,0,0,1.000,1.000,1.000,-90.00,180.00,0.00,OPEN,0
671232.725,0,0,0,1.000,1.000,1.000,-90.00,180.00,0.00,OPEN,0
671232.775,0,0,0,1.000,1.000,1.000,-90.00,180.00,0.00,OPEN,0
671232.824,0,0,0,1.000,1.000,1.000,-90.00,180.00,0.00,OPEN,0
671232.875,0,0,0,1.000,1.000,1.000,-90.00,180.00,0.00,OPEN,0
671232.925,0,0,0,1.000,1.000,1.000,-90.00,180.00,0.00,OPEN,0
671232.975,0,0,0,1.000,1.000,1.000,-90.00,180.00,0.00,OPEN,0
671233.025,0,0,0,1.000,1.000,1.000,-90.00,180.00,0.00,OPEN,0
671233.075,0,0,0,1.000,1.000,1.000,-90.00,180.00,0.00,OPEN,0
671233.124,0,0,0,1.000,1.000,1.000,-90.00,180.00,0.00,OPEN,0
671233.175,0,0,0,1.000,1.000,1.000,-90.00,180.00,0.00,OPEN,0
671233.225,0,0,0,1.000,1.000,1.000,-90.00,180.00,0.00,OPEN,0
671233.285,0,0,0,1.000,1.000,1.000,-90.00,180.00,0.00,OPEN,0
671233.326,0,0,0,1.000,1.000,1.000,-90.00,180.00,0.00,OPEN,0
671233.375,0,0,0,1.000,1.000,1.000,-90.00,180.00,0.00,OPEN,0
671233.425,0,0,0,1.000,1.000,1.000,-90.00,180.00,0.00,OPEN,0
671233.475,0,0,0,1.000,1.000,1.000,-90.00,180.00,0.00,OPEN,0
671233.524,0,0,0,1.000,1.000,1.000,-90.00,180.00,0.00,OPEN,0
671233.575,0,0,0,1.000,1.000,1.000,-90.00,180.00,0.00,OPEN,0
671233.624,0,0,0,1.000,1.000,1.000,-90.00,180.00,0.00,OPEN,0
671233.674,0,0,0,1.000,1.000,1.000,-90.00,180.00,0.00,OPEN,0
671233.725,0,0,0,1.000,1.000,1.000,-90.00,180.00,0.00,OPEN,0
671233.775,0,0,0,1.000,1.000,1.000,-90.00,180.00,0.00,OPEN,0
671233.825,0,0,0,1.000,1.000,1.000,-90.00,180.00,0.00,OPEN,0
671233.875,0,0,0,1.000,1.000,1.000,-90.00,180.00,0.00,OPEN,0
671233.925,0,0,0,1.000,1.000,1.000,-90.00,180.00,0.00,OPEN,0
671233.975,0,0,0,1.000,1.000,1.000,-90.00,180.00,0.00,OPEN,0
671234.025,0,0,0,1.000,1.000,1.000,-90.00,180.00,0.00,OPEN,0
671234.075,0,0,0,1.000,1.000,1.000,-90.00,180.00,0.00,OPEN,0
671234.125,0,0,0,1.000,1.000,1.000,-90.00,180.00,0.00,OPEN,0
671234.175,0,0,0,1.000,1.000,1.000,-90.00,180.00,0.00,OPEN,0
671234.225,0,0,0,1.000,1.000,1.000,-90.00,180.00,0.00,OPEN,0
671234.275,0,0,0,1.000,1.000,1.000,-90.00,180.00,0.00,OPEN,0
671234.325,0,0,0,1.000,1.000,1.000,-90.00,180.00,0.00,OPEN,0
671234.375,0,0,0,1.000,1.000,1.000,-90.00,180.00,0.00,OPEN,0
671234.425,0,0,0,1.000,1.000,1.000,-90.00,180.00,0.00,OPEN,0
671234.474,0,0,0,1.000,1.000,1.000,-90.00,180.00,0.00,OPEN,0
671234.525,0,0,0,1.000,1.000,1.000,-90.00,180.00,0.00,OPEN,0
671234.574,0,0,0,1.000,1.000,1.000,-90.00,180.00,0.00,OPEN,0
671234.624,0,0,0,1.000,1.000,1.000,-90.00,180.00,0.00,OPEN,0
671234.674,0,0,0,1.000,1.000,1.000,-90.00,180.00,0.00,OPEN,0
671234.725,0,0,0,1.000,1.000,1.000,-90.00,180.00,0.00,OPEN,0
671234.775,0,0,0,1.000,1.000,1.000,-90.00,180.00,0.00,OPEN,0
671234.839,0,0,0,1.000,1.000,1.000,-90.00,180.00,0.00,OPEN,0
671234.876,0,0,0,1.000,1.000,1.000,-90.00,180.00,0.00,OPEN,0
671234.924,0,0,0,1.000,1.000,1.000,-90.00,180.00,0.00,OPEN,0
671234.975,0,0,0,1.000,1.000,1.000,-90.00,180.00,0.00,OPEN,0
671235.025,0,0,0,1.000,1.000,1.000,-90.00,180.00,0.00,OPEN,0
671235.075,0,0,0,1.000,1.000,1.000,-90.00,180.00,0.00,OPEN,0
671235.125,0,0,0,1.000,1.000,1.000,-90.00,180.00,0.00,OPEN,0
671235.174,0,0,0,1.000,1.000,1.000,-90.00,180.00,0.00,OPEN,0
671235.224,0,0,0,1.000,1.000,1.000,-90.00,180.00,0.00,OPEN,0
671235.275,0,0,0,1.000,1.000,1.000,-90.00,180.00,0.00,OPEN,0
671235.325,0,0,0,1.000,1.000,1.000,-90.00,180.00,0.00,OPEN,0
671235.375,0,0,0,1.000,1.000,1.000,-90.00,180.00,0.00,OPEN,0
671235.424,0,0,0,1.000,1.000,1.000,-90.00,180.00,0.00,OPEN,0
671235.475,0,0,0,1.000,1.000,1.000,-90.00,180.00,0.00,OPEN,0
671235.525,0,0,0,1.000,1.000,1.000,-90.00,180.00,0.00,OPEN,0
671235.575,0,0,0,1.000,1.000,1.000,-90.00,180.00,0.00,OPEN,0
671235.625,0,0,0,1.000,1.000,1.000,-90.00,180.00,0.00,OPEN,0
671235.674,0,0,0,1.000,1.000,1.000,-90.00,180.00,0.00,OPEN,0
671235.724,0,0,0,1.000,1.000,1.000,-90.00,180.00,0.00,OPEN,0
671235.775,0,0,0,1.000,1.000,1.000,-90.00,180.00,0.00,OPEN,0
671235.825,0,0,0,1.000,1.000,1.000,-90.00,180.00,0.00,OPEN,0
671235.874,0,0,0,1.000,1.000,1.000,-90.00,180.00,0.00,OPEN,0
671235.925,0,0,0,0.999,1.000,1.000,-90.00,180.00,0.00,OPEN,0
671235.974,0,0,0,0.866,1.000,1.000,-90.00,180.00,0.00,OPEN,0
671236.024,0,0,0,0.663,1.000,1.000,-90.00,180.00,0.00,OPEN,0
671236.075,0,0,0,0.938,1.000,1.000,-90.00,180.00,0.00,OPEN,0
671236.125,0,0,0,0.994,1.000,1.000,-90.00,180.00,0.00,OPEN,0
671236.180,0,0,0,0.999,1.000,1.000,-90.00,180.00,0.00,OPEN,0
671236.231,0,0,0,1.000,1.000,1.000,-90.00,180.00,0.00,OPEN,0
671236.275,0,0,0,1.000,1.000,1.000,-90.00,180.00,0.00,OPEN,0
671236.325,0,0,0,1.000,1.000,1.000,-90.00,180.00,0.00,OPEN,0
671236.374,0,0,0,1.000,1.000,1.000,-90.00,180.00,0.00,OPEN,0
671236.424,2,0,0,1.000,1.000,1.000,-90.00,180.00,0.00,OPEN,0
671236.475,2,0,0,1.000,1.000,1.000,-90.00,180.00,0.00,OPEN,0
671236.525,2,0,0,1.000,1.000,1.000,-90.00,180.00,0.00,OPEN,0
671236.575,2,0,0,1.000,1.000,1.000,-90.00,180.00,0.00,OPEN,0
671236.624,2,0,0,1.000,1.000,1.000,-90.00,180.00,0.00,OPEN,0
671236.675,2,0,0,1.000,1.000,1.000,-90.00,180.00,0.00,OPEN,0
671236.725,2,0,0,1.000,1.000,1.000,-90.00,180.00,0.00,OPEN,0
671236.775,2,0,0,1.000,1.000,1.000,-90.00,180.00,0.00,OPEN,0
671236.825,2,0,0,1.000,1.000,1.000,-90.00,180.00,0.00,OPEN,0
671236.875,2,0,0,1.000,1.000,1.000,-90.00,180.00,0.00,OPEN,0
671236.925,2,0,0,1.000,1.000,1.000,-90.00,180.00,0.00,OPEN,0
671236.975,2,0,0,1.000,1.000,1.000,-90.00,180.00,0.00,OPEN,0
671237.025,2,0,0,1.000,1.000,1.000,-90.00,180.00,0.00,OPEN,0
671237.075,2,0,0,1.000,1.000,1.000,-90.00,180.00,0.00,OPEN,0
671237.124,2,0,0,1.000,1.000,1.000,-90.00,180.00,0.00,OPEN,0
671237.175,2,0,0,1.000,1.000,1.000,-90.00,180.00,0.00,OPEN,0
671237.236,2,0,0,1.000,1.000,1.000,-90.00,180.00,0.00,OPEN,0
671237.276,2,0,0,1.000,1.000,1.000,-90.00,180.00,0.00,OPEN,0
671237.325,2,0,0,1.000,1.000,1.000,-90.00,180.00,0.00,OPEN,0
671237.374,2,0,0,1.000,1.000,1.000,-90.00,180.00,0.00,OPEN,0
671237.425,2,0,0,1.000,1.000,1.000,-90.00,180.00,0.00,OPEN,0
671237.474,2,0,0,1.000,1.000,1.000,-90.00,180.00,0.00,OPEN,0
671237.525,2,0,0,1.000,1.000,1.000,-90.00,180.00,0.00,OPEN,0
671237.575,2,0,0,1.000,1.000,1.000,-90.00,180.00,0.00,OPEN,0
671237.625,2,0,0,1.000,1.000,1.000,-90.00,180.00,0.00,OPEN,0
671237.675,2,0,0,1.000,1.000,1.000,-90.00,180.00,0.00,OPEN,0
671237.725,2,0,0,1.000,1.000,1.000,-90.00,180.00,0.00,OPEN,0
671237.774,2,0,0,1.000,1.000,1.000,-90.00,180.00,0.00,OPEN,0
671237.825,2,0,0,1.000,1.000,1.000,-90.00,180.00,0.00,OPEN,0
671237.875,2,0,0,1.000,1.000,1.000,-90.00,180.00,0.00,OPEN,0
671237.925,2,0,0,1.000,1.000,1.000,-90.00,180.00,0.00,OPEN,0
671237.975,2,0,0,1.000,1.000,1.000,-90.00,180.00,0.00,OPEN,0
671238.028,2,0,0,1.000,1.000,1.000,-90.00,180.00,0.00,OPEN,0
671238.075,2,0,0,1.000,1.000,1.000,-90.00,180.00,0.00,OPEN,0
671238.125,2,0,0,1.000,1.000,1.000,-90.00,180.00,0.00,OPEN,0
671238.174,2,0,0,1.000,1.000,1.000,-90.00,180.00,0.00,OPEN,0
671238.224,2,0,0,1.000,1.000,1.000,-90.00,180.00,0.00,OPEN,0
671238.275,2,0,0,1.000,1.000,1.000,-90.00,180.00,0.00,OPEN,0
671238.325,2,0,0,1.000,1.000,1.000,-90.00,180.00,0.00,OPEN,0
671238.375,2,0,0,1.000,1.000,1.000,-90.00,180.00,0.00,OPEN,0
671238.435,2,0,0,1.000,1.000,1.000,-90.00,180.00,0.00,OPEN,0
671238.482,2,0,0,1.000,1.000,1.000,-90.00,180.00,0.00,OPEN,0
671238.525,2,0,0,1.000,1.000,1.000,-90.00,180.00,0.00,OPEN,0
671238.575,2,0,0,1.000,1.000,1.000,-90.00,180.00,0.00,OPEN,0
671238.625,2,0,0,1.000,1.000,1.000,-90.00,180.00,0.00,OPEN,0
671238.675,2,0,0,1.000,1.000,1.000,-90.00,180.00,0.00,OPEN,0
671238.725,2,0,0,1.000,1.000,1.000,-90.00,180.00,0.00,OPEN,0
671238.775,2,0,0,1.000,1.000,1.000,-90.00,180.00,0.00,OPEN,0
671238.825,2,0,0,1.000,1.000,1.000,-90.00,180.00,0.00,OPEN,0
671238.874,2,0,0,1.000,1.000,1.000,-90.00,180.00,0.00,OPEN,0
671238.924,2,0,0,1.000,1.000,1.000,-90.00,180.00,0.00,OPEN,0
671238.975,2,0,0,1.000,1.000,1.000,-90.00,180.00,0.00,OPEN,0
671239.025,2,0,0,1.000,1.000,1.000,-90.00,180.00,0.00,OPEN,0
671239.076,2,0,0,1.000,1.000,1.000,-90.00,180.00,0.00,OPEN,0
671239.124,2,0,0,1.000,1.000,1.000,-90.00,180.00,0.00,OPEN,0
671239.174,2,0,0,1.000,1.000,1.000,-90.00,180.00,0.00,OPEN,0
671239.225,2,0,0,1.000,1.000,1.000,-90.00,180.00,0.00,OPEN,0
671239.275,2,0,0,1.000,1.000,1.000,-90.00,180.00,0.00,OPEN,0
671239.325,2,0,0,1.000,1.000,1.000,-90.00,180.00,0.00,OPEN,0
671239.375,2,0,0,1.000,1.000,1.000,-90.00,180.00,0.00,OPEN,0
671239.424,2,0,0,1.000,1.000,1.000,-90.00,180.00,0.00,OPEN,0
671239.475,2,0,0,1.000,1.000,1.000,-90.00,180.00,0.00,OPEN,0
671239.533,2,0,0,1.000,1.000,1.000,-90.00,180.00,0.00,OPEN,0
671239.581,2,0,0,1.000,1.000,1.000,-90.00,180.00,0.00,OPEN,0
671239.624,2,0,0,1.000,1.000,1.000,-90.00,180.00,0.00,OPEN,0
671239.675,2,0,0,1.000,1.000,1.000,-90.00,180.00,0.00,OPEN,0
671239.725,2,0,0,1.000,1.000,1.000,-90.00,180.00,0.00,OPEN,0
671239.775,2,0,0,1.000,1.000,1.000,-90.00,180.00,0.00,OPEN,0
671239.825,2,0,0,1.000,1.000,1.000,-90.00,180.00,0.00,OPEN,0
671239.875,2,0,0,1.000,1.000,1.000,-90.00,180.00,0.00,OPEN,0
671239.924,2,0,0,1.000,1.000,1.000,-90.00,180.00,0.00,OPEN,0
671239.975,2,0,0,1.000,1.000,1.000,-90.00,180.00,0.00,OPEN,0
671240.025,2,0,0,1.000,1.000,1.000,-90.00,180.00,0.00,OPEN,0
671240.075,2,0,0,1.000,1.000,1.000,-90.00,180.00,0.00,OPEN,0
671240.124,2,0,0,1.000,1.000,1.000,-90.00,180.00,0.00,OPEN,0
671240.175,2,0,0,1.000,1.000,1.000,-90.00,180.00,0.00,OPEN,0
671240.225,2,0,0,1.000,1.000,1.000,-90.00,180.00,0.00,OPEN,0
671240.275,2,0,0,1.000,1.000,1.000,-90.00,180.00,0.00,OPEN,0
671240.324,2,0,0,1.000,1.000,1.000,-90.00,180.00,0.00,OPEN,0
671240.374,2,0,0,1.000,1.000,1.000,-90.00,180.00,0.00,OPEN,0
671240.425,2,0,0,1.000,1.000,1.000,-90.00,180.00,0.00,OPEN,0
671240.475,2,0,0,1.000,1.000,1.000,-90.00,180.00,0.00,OPEN,0
671240.525,2,0,0,1.000,1.000,1.000,-90.00,180.00,0.00,OPEN,0
671240.575,2,0,0,1.000,1.000,1.000,-90.00,180.00,0.00,OPEN,0
671240.625,2,0,0,1.000,1.000,1.000,-90.00,180.00,0.00,OPEN,0
671240.675,2,0,0,1.000,1.000,1.000,-90.00,180.00,0.00,OPEN,0
671240.740,2,0,0,1.000,1.000,1.000,-90.00,180.00,0.00,OPEN,0
671240.777,2,0,0,1.000,1.000,1.000,-90.00,180.00,0.00,OPEN,0
671240.824,2,0,0,1.000,1.000,1.000,-90.00,180.00,0.00,OPEN,0
671240.875,2,0,0,1.000,1.000,1.000,-90.00,180.00,0.00,OPEN,0
671240.925,2,0,0,1.000,1.000,1.000,-90.00,180.00,0.00,OPEN,0
671240.975,2,0,0,1.000,1.000,1.000,-90.00,180.00,0.00,OPEN,0
671241.025,2,0,0,1.000,1.000,1.000,-90.00,180.00,0.00,OPEN,0
671241.075,2,0,0,1.000,1.000,1.000,-90.00,180.00,0.00,OPEN,0
671241.124,2,0,0,1.000,1.000,1.000,-90.00,180.00,0.00,OPEN,0
671241.175,2,0,0,1.000,1.000,1.000,-90.00,180.00,0.00,OPEN,0
671241.225,2,0,0,1.000,1.000,1.000,-90.00,180.00,0.00,OPEN,0
671241.275,2,0,0,1.000,1.000,1.000,-90.00,180.00,0.00,OPEN,0
671241.325,2,0,0,1.000,1.000,1.000,-90.00,180.00,0.00,OPEN,0
671241.374,2,0,0,1.000,1.000,1.000,-90.00,180.00,0.00,OPEN,0
671241.425,2,0,0,1.000,1.000,1.000,-90.00,180.00,0.00,OPEN,0
671241.475,2,0,0,1.000,1.000,1.000,-90.00,180.00,0.00,OPEN,0
671241.524,2,0,0,1.000,1.000,1.000,-90.00,180.00,0.00,OPEN,0
671241.575,2,0,0,1.000,1.000,1.000,-90.00,180.00,0.00,OPEN,0
671241.625,2,0,0,1.000,1.000,1.000,-90.00,180.00,0.00,OPEN,0
671241.674,2,0,0,1.000,1.000,1.000,-90.00,180.00,0.00,OPEN,0
671241.725,2,0,0,1.000,1.000,1.000,-90.00,180.00,0.00,OPEN,0
671241.774,2,0,0,1.000,1.000,1.000,-90.00,180.00,0.00,OPEN,0
671241.841,2,0,0,1.000,1.000,1.000,-90.00,180.00,0.00,OPEN,0
671241.876,2,0,0,1.000,1.000,1.000,-90.00,180.00,0.00,OPEN,0
671241.924,2,0,0,1.000,1.000,1.000,-90.00,180.00,0.00,OPEN,0
671241.975,2,0,0,1.000,1.000,1.000,-90.00,180.00,0.00,OPEN,0
671242.025,2,0,0,1.000,1.000,1.000,-90.00,180.00,0.00,OPEN,0
671242.074,2,0,0,1.000,1.000,1.000,-90.00,180.00,0.00,OPEN,0
671242.125,2,0,0,1.000,1.000,1.000,-90.00,180.00,0.00,OPEN,0
671242.175,2,0,0,1.000,1.000,1.000,-90.00,180.00,0.00,OPEN,0
671242.224,2,0,0,0.999,1.000,1.000,-90.00,180.00,0.00,OPEN,0
671242.275,2,0,0,0.968,1.000,1.000,-90.00,180.00,0.00,OPEN,0
671242.325,2,0,0,0.730,1.000,1.000,-90.00,180.00,0.00,OPEN,0
671242.375,2,0,0,0.954,1.000,1.000,-90.00,180.00,0.00,OPEN,0
671242.425,2,0,0,0.989,1.000,1.000,-90.00,180.00,0.00,OPEN,0
671242.474,2,0,0,0.992,1.000,1.000,-90.00,180.00,0.00,OPEN,0
671242.525,2,0,0,0.988,1.000,1.000,-90.00,180.00,0.00,OPEN,0
671242.575,2,0,0,0.986,1.000,1.000,-90.00,180.00,0.00,OPEN,0
671242.625,2,0,0,0.980,1.000,1.000,-90.00,180.00,0.00,OPEN,0
671242.675,2,0,0,0.875,1.000,1.000,-90.00,180.00,0.00,OPEN,0
671242.725,3,0,0,0.922,1.000,1.000,-90.00,180.00,0.00,OPEN,0
671242.775,3,0,0,1.000,1.000,1.000,-90.00,180.00,0.00,OPEN,0
671242.826,3,0,0,1.000,1.000,1.000,-90.00,180.00,0.00,OPEN,0
671242.893,3,0,0,1.000,1.000,1.000,-90.00,180.00,0.00,OPEN,0
671242.927,3,0,0,1.000,1.000,1.000,-90.00,180.00,0.00,OPEN,0
671242.974,3,0,0,1.000,1.000,1.000,-90.00,180.00,0.00,OPEN,0
671243.025,3,0,0,1.000,1.000,1.000,-90.00,180.00,0.00,OPEN,0
671243.075,0,0,0,1.000,1.000,1.000,-90.00,180.00,0.00,OPEN,0
671243.124,0,0,0,1.000,1.000,1.000,-90.00,180.00,0.00,OPEN,0
671243.174,0,0,0,1.000,1.000,1.000,-90.00,180.00,0.00,OPEN,0
671243.225,0,0,0,1.000,1.000,1.000,-90.00,180.00,0.00,OPEN,0
671243.275,0,0,0,1.000,1.000,1.000,-90.00,180.00,0.00,OPEN,0
671243.325,0,0,0,1.000,1.000,1.000,-90.00,180.00,0.00,OPEN,0
671243.375,0,0,0,1.000,1.000,1.000,-90.00,180.00,0.00,OPEN,0
671243.425,0,0,0,1.000,1.000,1.000,-90.00,180.00,0.00,OPEN,0
671243.475,0,0,0,1.000,1.000,1.000,-90.00,180.00,0.00,OPEN,0
671243.524,0,0,0,1.000,1.000,1.000,-90.00,180.00,0.00,OPEN,0
671243.575,0,0,0,1.000,1.000,1.000,-90.00,180.00,0.00,OPEN,0
671243.624,0,0,0,1.000,1.000,1.000,-90.00,180.00,0.00,OPEN,0
671243.675,0,0,0,1.000,1.000,1.000,-90.00,180.00,0.00,OPEN,0
671243.725,0,0,0,1.000,1.000,1.000,-90.00,180.00,0.00,OPEN,0
671243.775,0,0,0,1.000,1.000,1.000,-90.00,180.00,0.00,OPEN,0
671243.825,0,0,0,1.000,1.000,1.000,-90.00,180.00,0.00,OPEN,0
671243.875,0,0,0,1.000,1.000,1.000,-90.00,180.00,0.00,OPEN,0
671243.925,0,0,0,1.000,1.000,1.000,-90.00,180.00,0.00,OPEN,0
671243.974,0,0,0,1.000,1.000,1.000,-90.00,180.00,0.00,OPEN,0
671244.025,0,0,0,1.000,1.000,1.000,-90.00,180.00,0.00,OPEN,0
671244.075,0,0,0,1.000,1.000,1.000,-90.00,180.00,0.00,OPEN,0
671244.125,0,0,0,1.000,1.000,1.000,-90.00,180.00,0.00,OPEN,0
671244.175,0,0,0,1.000,1.000,1.000,-90.00,180.00,0.00,OPEN,0
671244.225,0,0,0,1.000,1.000,1.000,-90.00,180.00,0.00,OPEN,0
671244.275,0,0,0,1.000,1.000,1.000,-90.00,180.00,0.00,OPEN,0
671244.325,0,0,0,1.000,1.000,1.000,-90.00,180.00,0.00,OPEN,0
671244.374,0,0,0,1.000,1.000,1.000,-90.00,180.00,0.00,OPEN,0
671244.425,0,0,0,1.000,1.000,1.000,-90.00,180.00,0.00,OPEN,0
671244.475,0,0,0,1.000,1.000,1.000,-90.00,180.00,0.00,OPEN,0
671244.525,0,0,0,1.000,1.000,1.000,-90.00,180.00,0.00,OPEN,0
671244.574,0,0,0,1.000,1.000,1.000,-90.00,180.00,0.00,OPEN,0
671244.624,0,0,0,1.000,1.000,1.000,-90.00,180.00,0.00,OPEN,0
671244.675,0,0,0,1.000,1.000,1.000,-90.00,180.00,0.00,OPEN,0
671244.725,0,0,0,1.000,1.000,1.000,-90.00,180.00,0.00,OPEN,0
671244.775,0,0,0,1.000,1.000,1.000,-90.00,180.00,0.00,OPEN,0
671244.839,0,0,0,1.000,1.000,1.000,-90.00,180.00,0.00,OPEN,0
671244.876,0,0,0,1.000,1.000,1.000,-90.00,180.00,0.00,OPEN,0
671244.925,0,0,0,1.000,1.000,1.000,-90.00,180.00,0.00,OPEN,0
671244.975,0,0,0,1.000,1.000,1.000,-90.00,180.00,0.00,OPEN,0
671245.025,0,0,0,1.000,1.000,1.000,-90.00,180.00,0.00,OPEN,0
671245.075,0,0,0,1.000,1.000,1.000,-90.00,180.00,0.00,OPEN,0
671245.124,0,0,0,1.000,1.000,1.000,-90.00,180.00,0.00,OPEN,0
671245.175,0,0,0,1.000,1.000,1.000,-90.00,180.00,0.00,OPEN,0
671245.225,0,0,0,1.000,1.000,1.000,-90.00,180.00,0.00,OPEN,0
671245.275,0,0,0,1.000,1.000,1.000,-90.00,180.00,0.00,OPEN,0
671245.325,0,0,0,1.000,1.000,1.000,-90.00,180.00,0.00,OPEN,0
671245.374,0,0,0,1.000,1.000,1.000,-90.00,180.00,0.00,OPEN,0
671245.424,0,0,0,1.000,1.000,1.000,-90.00,180.00,0.00,OPEN,0
671245.475,0,0,0,1.000,1.000,1.000,-90.00,180.00,0.00,OPEN,0
671245.525,0,0,0,1.000,1.000,1.000,-90.00,180.00,0.00,OPEN,0
671245.575,0,0,0,1.000,1.000,1.000,-90.00,180.00,0.00,OPEN,0
671245.625,0,0,0,1.000,1.000,1.000,-90.00,180.00,0.00,OPEN,0
671245.674,0,0,0,1.000,1.000,1.000,-90.00,180.00,0.00,OPEN,0
671245.725,0,0,0,1.000,1.000,1.000,-90.00,180.00,0.00,OPEN,0
671245.775,0,0,0,1.000,1.000,1.000,-90.00,180.00,0.00,OPEN,0
671245.825,0,0,0,1.000,1.000,1.000,-90.00,180.00,0.00,OPEN,0
671245.875,0,0,0,1.000,1.000,1.000,-90.00,180.00,0.00,OPEN,0
671245.940,0,0,0,1.000,1.000,1.000,-90.00,180.00,0.00,OPEN,0
671245.981,0,0,0,1.000,1.000,1.000,-90.00,180.00,0.00,OPEN,0
671246.025,0,0,0,1.000,1.000,1.000,-90.00,180.00,0.00,OPEN,0
671246.080,0,0,0,1.000,1.000,1.000,-90.00,180.00,0.00,OPEN,0
671246.127,0,0,0,1.000,1.000,1.000,-90.00,180.00,0.00,OPEN,0
671246.175,0,0,0,1.000,1.000,1.000,-90.00,180.00,0.00,OPEN,0
671246.225,0,0,0,1.000,1.000,1.000,-90.00,180.00,0.00,OPEN,0
671246.275,0,0,0,1.000,1.000,1.000,-90.00,180.00,0.00,OPEN,0
671246.325,0,0,0,1.000,1.000,1.000,-90.00,180.00,0.00,OPEN,0
671246.376,0,0,0,1.000,1.000,1.000,-90.00,180.00,0.00,OPEN,0
671246.424,0,0,0,1.000,1.000,1.000,-90.00,180.00,0.00,OPEN,0
671246.475,0,0,0,1.000,1.000,1.000,-90.00,180.00,0.00,OPEN,0
671246.525,0,0,0,1.000,1.000,1.000,-90.00,180.00,0.00,OPEN,0
671246.575,0,0,0,1.000,1.000,1.000,-90.00,180.00,0.00,OPEN,0
671246.624,0,0,0,1.000,1.000,1.000,-90.00,180.00,0.00,OPEN,0
671246.675,0,0,0,1.000,1.000,1.000,-90.00,180.00,0.00,OPEN,0
671246.734,0,0,0,1.000,1.000,1.000,-90.00,180.00,0.00,OPEN,0
671246.777,0,0,0,1.000,1.000,1.000,-90.00,180.00,0.00,OPEN,0
671246.825,0,0,0,1.000,1.000,1.000,-90.00,180.00,0.00,OPEN,0
671246.875,0,0,0,1.000,1.000,1.000,-90.00,180.00,0.00,OPEN,0
671246.924,0,0,0,1.000,1.000,1.000,-90.00,180.00,0.00,OPEN,0
671246.974,0,0,0,1.000,1.000,1.000,-90.00,180.00,0.00,OPEN,0
671247.025,0,0,0,1.000,1.000,1.000,-90.00,180.00,0.00,OPEN,0
671247.074,0,0,0,1.000,1.000,1.000,-90.00,180.00,0.00,OPEN,0
671247.125,0,0,0,1.000,1.000,1.000,-90.00,180.00,0.00,OPEN,0
671247.179,0,0,0,1.000,1.000,1.000,-90.00,180.00,0.00,OPEN,0
671247.225,0,0,0,1.000,1.000,1.000,-90.00,180.00,0.00,OPEN,0
671247.275,0,0,0,1.000,1.000,1.000,-90.00,180.00,0.00,OPEN,0
671247.325,0,0,0,1.000,1.000,1.000,-90.00,180.00,0.00,OPEN,0
671247.374,0,0,0,1.000,1.000,1.000,-90.00,180.00,0.00,OPEN,0
671247.424,0,0,0,1.000,1.000,1.000,-90.00,180.00,0.00,OPEN,0
671247.475,0,0,0,1.000,1.000,1.000,-90.00,180.00,0.00,OPEN,0
671247.525,0,0,0,1.000,1.000,1.000,-90.00,180.00,0.00,OPEN,0
671247.575,0,0,0,1.000,1.000,1.000,-90.00,180.00,0.00,OPEN,0
671247.624,0,0,0,1.000,1.000,1.000,-90.00,180.00,0.00,OPEN,0
671247.684,0,0,0,1.000,1.000,1.000,-90.00,180.00,0.00,OPEN,0
671247.726,0,0,0,1.000,1.000,1.000,-90.00,180.00,0.00,OPEN,0
671247.775,0,0,0,1.000,1.000,1.000,-90.00,180.00,0.00,OPEN,0
671247.824,0,0,0,1.000,1.000,1.000,-90.00,180.00,0.00,OPEN,0
671247.874,0,0,0,1.000,1.000,1.000,-90.00,180.00,0.00,OPEN,0
671247.924,0,0,0,1.000,1.000,1.000,-90.00,180.00,0.00,OPEN,0
671247.975,0,0,0,1.000,1.000,1.000,-90.00,180.00,0.00,OPEN,0
671248.025,0,0,0,1.000,1.000,1.000,-90.00,180.00,0.00,OPEN,0
671248.075,0,0,0,1.000,1.000,1.000,-90.00,180.00,0.00,OPEN,0
671248.125,0,0,0,1.000,1.000,1.000,-90.00,180.00,0.00,OPEN,0
671248.175,0,0,0,1.000,1.000,1.000,-90.00,180.00,0.00,OPEN,0
671248.224,0,0,0,1.000,1.000,1.000,-90.00,180.00,0.00,OPEN,0
671248.275,0,0,0,1.000,1.000,1.000,-90.00,180.00,0.00,OPEN,0
671248.325,0,0,0,1.000,1.000,1.000,-90.00,180.00,0.00,OPEN,0
671248.375,0,0,0,1.000,1.000,1.000,-90.00,180.00,0.00,OPEN,0
671248.425,0,0,0,1.000,1.000,1.000,-90.00,180.00,0.00,OPEN,0
671248.475,0,0,0,1.000,1.000,1.000,-90.00,180.00,0.00,OPEN,0
671248.525,0,0,0,1.000,1.000,1.000,-90.00,180.00,0.00,OPEN,0
671248.575,0,0,0,1.000,1.000,1.000,-90.00,180.00,0.00,OPEN,0
671248.625,0,0,0,1.000,1.000,1.000,-90.00,180.00,0.00,OPEN,0
671248.674,0,0,0,1.000,1.000,1.000,-90.00,180.00,0.00,OPEN,0
671248.726,0,0,0,1.000,1.000,1.000,-90.00,180.00,0.00,OPEN,0
671248.775,0,0,0,1.000,1.000,1.000,-90.00,180.00,0.00,OPEN,0
671248.825,0,0,0,1.000,1.000,1.000,-90.00,180.00,0.00,OPEN,0
671248.874,0,0,0,1.000,1.000,1.000,-90.00,180.00,0.00,OPEN,0
671248.924,0,0,0,1.000,1.000,1.000,-90.00,180.00,0.00,OPEN,0
671248.975,0,0,0,1.000,1.000,1.000,-90.00,180.00,0.00,OPEN,0
671249.025,0,0,0,1.000,1.000,1.000,-90.00,180.00,0.00,OPEN,0
671249.074,0,0,0,1.000,1.000,1.000,-90.00,180.00,0.00,OPEN,0
671249.124,0,0,0,1.000,1.000,1.000,-90.00,180.00,0.00,OPEN,0
671249.175,0,0,0,1.000,1.000,1.000,-90.00,180.00,0.00,OPEN,0
671249.225,0,0,0,1.000,1.000,1.000,-90.00,180.00,0.00,OPEN,0
671249.285,0,0,0,1.000,1.000,1.000,-90.00,180.00,0.00,OPEN,0
671249.328,0,0,0,1.000,1.000,1.000,-90.00,180.00,0.00,OPEN,0
671249.375,0,0,0,1.000,1.000,1.000,-90.00,180.00,0.00,OPEN,0
671249.425,0,0,0,1.000,1.000,1.000,-90.00,180.00,0.00,OPEN,0
671249.475,0,0,0,1.000,1.000,1.000,-90.00,180.00,0.00,OPEN,0
671249.525,0,0,0,1.000,1.000,1.000,-90.00,180.00,0.00,OPEN,0
671249.575,0,0,0,1.000,1.000,1.000,-90.00,180.00,0.00,OPEN,0
671249.625,0,0,0,0.768,1.000,1.000,-90.00,180.00,0.00,OPEN,0
671249.675,0,0,0,0.955,1.000,1.000,-90.00,180.00,0.00,OPEN,0
671249.725,0,0,0,0.990,1.000,1.000,-90.00,180.00,0.00,OPEN,0
671249.775,0,0,0,0.998,1.000,1.000,-90.00,180.00,0.00,OPEN,0
671249.824,0,0,0,0.999,1.000,1.000,-90.00,180.00,0.00,OPEN,0
671249.875,0,0,0,1.000,1.000,1.000,-90.00,180.00,0.00,OPEN,0
671249.925,0,0,0,1.000,1.000,1.000,-90.00,180.00,0.00,OPEN,0
671249.975,0,0,0,1.000,1.000,1.000,-90.00,180.00,0.00,OPEN,0
671250.025,3,0,0,1.000,1.000,1.000,-90.00,180.00,0.00,OPEN,0
671250.076,3,0,0,1.000,1.000,1.000,-90.00,180.00,0.00,OPEN,0
671250.125,3,0,0,1.000,1.000,1.000,-90.00,180.00,0.00,OPEN,0
671250.174,3,0,0,1.000,1.000,1.000,-90.00,180.00,0.00,OPEN,0
671250.225,3,0,0,1.000,1.000,1.000,-90.00,180.00,0.00,OPEN,0
671250.275,3,0,0,1.000,1.000,1.000,-90.00,180.00,0.00,OPEN,0
671250.325,3,0,0,1.000,1.000,1.000,-90.00,180.00,0.00,OPEN,0
671250.375,3,0,0,1.000,1.000,1.000,-90.00,180.00,0.00,OPEN,0
671250.425,3,0,0,1.000,1.000,1.000,-90.00,180.00,0.00,OPEN,0
671250.475,3,0,0,1.000,1.000,1.000,-90.00,180.00,0.00,OPEN,0
671250.525,3,0,0,1.000,1.000,1.000,-90.00,180.00,0.00,OPEN,0
671250.575,3,0,0,1.000,1.000,1.000,-90.00,180.00,0.00,OPEN,0
671250.625,3,0,0,1.000,1.000,1.000,-90.00,180.00,0.00,OPEN,0
671250.675,3,0,0,1.000,1.000,1.000,-90.00,180.00,0.00,OPEN,0
671250.725,3,0,0,1.000,1.000,1.000,-90.00,180.00,0.00,OPEN,0
671250.807,3,0,0,1.000,1.000,1.000,-90.00,180.00,0.00,OPEN,0
671250.829,3,0,0,1.000,1.000,1.000,-90.00,180.00,0.00,OPEN,0
671250.875,3,0,0,1.000,1.000,1.000,-90.00,180.00,0.00,OPEN,0
671250.925,3,0,0,1.000,1.000,1.000,-90.00,180.00,0.00,OPEN,0
671250.975,3,0,0,1.000,1.000,1.000,-90.00,180.00,0.00,OPEN,0
671251.025,3,0,0,1.000,1.000,1.000,-90.00,180.00,0.00,OPEN,0
671251.075,3,0,0,1.000,1.000,1.000,-90.00,180.00,0.00,OPEN,0
671251.125,3,0,0,1.000,1.000,1.000,-90.00,180.00,0.00,OPEN,0
671251.175,3,0,0,1.000,1.000,1.000,-90.00,180.00,0.00,OPEN,0
671251.229,3,0,0,1.000,1.000,1.000,-90.00,180.00,0.00,OPEN,0
671251.275,3,0,0,1.000,1.000,1.000,-90.00,180.00,0.00,OPEN,0
671251.325,3,0,0,1.000,1.000,1.000,-90.00,180.00,0.00,OPEN,0
671251.374,3,0,0,1.000,1.000,1.000,-90.00,180.00,0.00,OPEN,0
671251.424,3,0,0,1.000,1.000,1.000,-90.00,180.00,0.00,OPEN,0
671251.474,3,0,0,1.000,1.000,1.000,-90.00,180.00,0.00,OPEN,0
671251.525,3,0,0,1.000,1.000,1.000,-90.00,180.00,0.00,OPEN,0
671251.575,3,0,0,1.000,1.000,1.000,-90.00,180.00,0.00,OPEN,0
671251.624,3,0,0,1.000,1.000,1.000,-90.00,180.00,0.00,OPEN,0
671251.675,3,0,0,1.000,1.000,1.000,-90.00,180.00,0.00,OPEN,0
671251.725,3,0,0,1.000,1.000,1.000,-90.00,180.00,0.00,OPEN,0
671251.775,3,0,0,1.000,1.000,1.000,-90.00,180.00,0.00,OPEN,0
671251.825,3,0,0,1.000,1.000,1.000,-90.00,180.00,0.00,OPEN,0
671251.875,3,0,0,1.000,1.000,1.000,-90.00,180.00,0.00,OPEN,0
671251.925,3,0,0,1.000,1.000,1.000,-90.00,180.00,0.00,OPEN,0
671251.975,3,0,0,1.000,1.000,1.000,-90.00,180.00,0.00,OPEN,0
671252.025,3,0,0,1.000,1.000,1.000,-90.00,180.00,0.00,OPEN,0
671252.075,3,0,0,1.000,1.000,1.000,-90.00,180.00,0.00,OPEN,0
671252.137,3,0,0,1.000,1.000,1.000,-90.00,180.00,0.00,OPEN,0
671252.178,3,0,0,1.000,1.000,1.000,-90.00,180.00,0.00,OPEN,0
671252.225,3,0,0,1.000,1.000,1.000,-90.00,180.00,0.00,OPEN,0
671252.276,3,0,0,1.000,1.000,1.000,-90.00,180.00,0.00,OPEN,0
671252.325,3,0,0,1.000,1.000,1.000,-90.00,180.00,0.00,OPEN,0
671252.374,3,0,0,1.000,1.000,1.000,-90.00,180.00,0.00,OPEN,0
671252.425,3,0,0,1.000,1.000,1.000,-90.00,180.00,0.00,OPEN,0
671252.475,3,0,0,1.000,1.000,1.000,-90.00,180.00,0.00,OPEN,0
671252.525,3,0,0,1.000,1.000,1.000,-90.00,180.00,0.00,OPEN,0
671252.574,3,0,0,1.000,1.000,1.000,-90.00,180.00,0.00,OPEN,0
671252.624,3,0,0,1.000,1.000,1.000,-90.00,180.00,0.00,OPEN,0
671252.675,3,0,0,1.000,1.000,1.000,-90.00,180.00,0.00,OPEN,0
671252.725,3,0,0,1.000,1.000,1.000,-90.00,180.00,0.00,OPEN,0
671252.775,3,0,0,1.000,1.000,1.000,-90.00,180.00,0.00,OPEN,0
671252.825,3,0,0,1.000,1.000,1.000,-90.00,180.00,0.00,OPEN,0
671252.875,3,0,0,1.000,1.000,1.000,-90.00,180.00,0.00,OPEN,0
671252.925,3,0,0,1.000,1.000,1.000,-90.00,180.00,0.00,OPEN,0
671252.975,3,0,0,1.000,1.000,1.000,-90.00,180.00,0.00,OPEN,0
671253.025,3,0,0,1.000,1.000,1.000,-90.00,180.00,0.00,OPEN,0
671253.075,3,0,0,1.000,1.000,1.000,-90.00,180.00,0.00,OPEN,0
671253.124,3,0,0,1.000,1.000,1.000,-90.00,180.00,0.00,OPEN,0
671253.175,3,0,0,1.000,1.000,1.000,-90.00,180.00,0.00,OPEN,0
671253.225,3,0,0,1.000,1.000,1.000,-90.00,180.00,0.00,OPEN,0
671253.276,3,0,0,1.000,1.000,1.000,-90.00,180.00,0.00,OPEN,0
671253.325,3,0,0,1.000,1.000,1.000,-90.00,180.00,0.00,OPEN,0
671253.375,3,0,0,1.000,1.000,1.000,-90.00,180.00,0.00,OPEN,0
671253.424,3,0,0,1.000,1.000,1.000,-90.00,180.00,0.00,OPEN,0
671253.475,3,0,0,1.000,1.000,1.000,-90.00,180.00,0.00,OPEN,0
671253.525,3,0,0,1.000,1.000,1.000,-90.00,180.00,0.00,OPEN,0
671253.575,3,0,0,1.000,1.000,1.000,-90.00,180.00,0.00,OPEN,0
671253.624,3,0,0,1.000,1.000,1.000,-90.00,180.00,0.00,OPEN,0
671253.675,3,0,0,1.000,1.000,1.000,-90.00,180.00,0.00,OPEN,0
671253.734,3,0,0,1.000,1.000,1.000,-90.00,180.00,0.00,OPEN,0
671253.776,3,0,0,1.000,1.000,1.000,-90.00,180.00,0.00,OPEN,0
671253.825,3,0,0,1.000,1.000,1.000,-90.00,180.00,0.00,OPEN,0
671253.875,3,0,0,1.000,1.000,1.000,-90.00,180.00,0.00,OPEN,0
671253.925,3,0,0,1.000,1.000,1.000,-90.00,180.00,0.00,OPEN,0
671253.975,3,0,0,1.000,1.000,1.000,-90.00,180.00,0.00,OPEN,0
671254.025,3,0,0,1.000,1.000,1.000,-90.00,180.00,0.00,OPEN,0
671254.075,3,0,0,1.000,1.000,1.000,-90.00,180.00,0.00,OPEN,0
671254.124,3,0,0,1.000,1.000,1.000,-90.00,180.00,0.00,OPEN,0
671254.176,3,0,0,1.000,1.000,1.000,-90.00,180.00,0.00,OPEN,0
671254.225,3,0,0,1.000,1.000,1.000,-90.00,180.00,0.00,OPEN,0
671254.275,3,0,0,1.000,1.000,1.000,-90.00,180.00,0.00,OPEN,0
671254.325,3,0,0,1.000,1.000,1.000,-90.00,180.00,0.00,OPEN,0
671254.376,3,0,0,1.000,1.000,1.000,-90.00,180.00,0.00,OPEN,0
671254.425,3,0,0,1.000,1.000,1.000,-90.00,180.00,0.00,OPEN,0
671254.475,3,0,0,1.000,1.000,1.000,-90.00,180.00,0.00,OPEN,0
671254.525,3,0,0,1.000,1.000,1.000,-90.00,180.00,0.00,OPEN,0
671254.574,3,0,0,1.000,1.000,1.000,-90.00,180.00,0.00,OPEN,0
671254.625,3,0,0,1.000,1.000,1.000,-90.00,180.00,0.00,OPEN,0
671254.676,3,0,0,1.000,1.000,1.000,-90.00,180.00,0.00,OPEN,0
671254.725,3,0,0,1.000,1.000,1.000,-90.00,180.00,0.00,OPEN,0
671254.775,3,0,0,1.000,1.000,1.000,-90.00,180.00,0.00,OPEN,0
671254.824,3,0,0,1.000,1.000,1.000,-90.00,180.00,0.00,OPEN,0
671254.875,3,0,0,1.000,1.000,1.000,-90.00,180.00,0.00,OPEN,0
671254.925,3,0,0,1.000,1.000,1.000,-90.00,180.00,0.00,OPEN,0
671254.975,3,0,0,1.000,1.000,1.000,-90.00,180.00,0.00,OPEN,0
671255.025,3,0,0,1.000,1.000,1.000,-90.00,180.00,0.00,OPEN,0
671255.075,3,0,0,1.000,1.000,1.000,-90.00,180.00,0.00,OPEN,0
671255.125,3,0,0,1.000,1.000,1.000,-90.00,180.00,0.00,OPEN,0
671255.175,3,0,0,1.000,1.000,1.000,-90.00,180.00,0.00,OPEN,0
671255.224,3,0,0,1.000,1.000,1.000,-90.00,180.00,0.00,OPEN,0
671255.275,3,0,0,1.000,1.000,1.000,-90.00,180.00,0.00,OPEN,0
671255.346,3,0,0,1.000,1.000,1.000,-90.00,180.00,0.00,OPEN,0
671255.378,3,0,0,1.000,1.000,1.000,-90.00,180.00,0.00,OPEN,0
671255.425,3,0,0,1.000,1.000,1.000,-90.00,180.00,0.00,OPEN,0
671255.474,3,0,0,1.000,1.000,1.000,-90.00,180.00,0.00,OPEN,0
671255.524,3,0,0,1.000,1.000,1.000,-90.00,180.00,0.00,OPEN,0
671255.574,3,0,0,1.000,1.000,1.000,-90.00,180.00,0.00,OPEN,0
671255.624,3,0,0,1.000,1.000,1.000,-90.00,180.00,0.00,OPEN,0
671255.675,3,0,0,1.000,1.000,1.000,-90.00,180.00,0.00,OPEN,0
671255.725,3,0,0,1.000,1.000,1.000,-90.00,180.00,0.00,OPEN,0
671255.774,3,0,0,1.000,1.000,1.000,-90.00,180.00,0.00,OPEN,0
671255.825,3,0,0,1.000,1.000,1.000,-90.00,180.00,0.00,OPEN,0
671255.875,3,0,0,0.998,1.000,1.000,-90.00,180.00,0.00,OPEN,0
671255.925,3,0,0,0.973,1.000,1.000,-90.00,180.00,0.00,OPEN,0
671255.975,3,0,0,0.588,1.000,1.000,-90.00,180.00,0.00,OPEN,0
671256.025,3,0,0,1.000,1.000,1.000,-90.00,180.00,0.00,OPEN,0
671256.075,3,0,0,1.000,1.000,1.000,-90.00,180.00,0.00,OPEN,0
671256.125,3,0,0,1.000,1.000,1.000,-90.00,180.00,0.00,OPEN,0
671256.175,3,0,0,1.000,1.000,1.000,-90.00,180.00,0.00,OPEN,0
671256.224,3,0,0,1.000,1.000,1.000,-90.00,180.00,0.00,OPEN,0
671256.275,3,0,0,1.000,1.000,1.000,-90.00,180.00,0.00,OPEN,0
671256.325,3,0,0,1.000,1.000,1.000,-90.00,180.00,0.00,OPEN,0
671256.374,0,0,0,1.000,1.000,1.000,-90.00,180.00,0.00,OPEN,0
671256.425,0,0,0,1.000,1.000,1.000,-90.00,180.00,0.00,OPEN,0
671256.474,0,0,0,1.000,1.000,1.000,-90.00,180.00,0.00,OPEN,0
671256.524,0,0,0,1.000,1.000,1.000,-90.00,180.00,0.00,OPEN,0
671256.575,0,0,0,1.000,1.000,1.000,-90.00,180.00,0.00,OPEN,0
671256.625,0,0,0,1.000,1.000,1.000,-90.00,180.00,0.00,OPEN,0
671256.675,0,0,0,1.000,1.000,1.000,-90.00,180.00,0.00,OPEN,0
671256.725,0,0,0,1.000,1.000,1.000,-90.00,180.00,0.00,OPEN,0
671256.774,0,0,0,1.000,1.000,1.000,-90.00,180.00,0.00,OPEN,0
671256.825,0,0,0,1.000,1.000,1.000,-90.00,180.00,0.00,OPEN,0
671256.875,0,0,0,1.000,1.000,1.000,-90.00,180.00,0.00,OPEN,0
671256.925,0,0,0,1.000,1.000,1.000,-90.00,180.00,0.00,OPEN,0
671256.975,0,0,0,1.000,1.000,1.000,-90.00,180.00,0.00,OPEN,0
671257.025,0,0,0,1.000,1.000,1.000,-90.00,180.00,0.00,OPEN,0
671257.075,0,0,0,1.000,1.000,1.000,-90.00,180.00,0.00,OPEN,0
671257.125,0,0,0,1.000,1.000,1.000,-90.00,180.00,0.00,OPEN,0
671257.175,0,0,0,1.000,1.000,1.000,-90.00,180.00,0.00,OPEN,0
671257.232,0,0,0,1.000,1.000,1.000,-90.00,180.00,0.00,OPEN,0
671257.276,0,0,0,1.000,1.000,1.000,-90.00,180.00,0.00,OPEN,0
671257.325,0,0,0,1.000,1.000,1.000,-90.00,180.00,0.00,OPEN,0
671257.375,0,0,0,1.000,1.000,1.000,-90.00,180.00,0.00,OPEN,0
671257.425,0,0,0,1.000,1.000,1.000,-90.00,180.00,0.00,OPEN,0
671257.475,0,0,0,1.000,1.000,1.000,-90.00,180.00,0.00,OPEN,0
671257.525,0,0,0,1.000,1.000,1.000,-90.00,180.00,0.00,OPEN,0
671257.575,0,0,0,1.000,1.000,1.000,-90.00,180.00,0.00,OPEN,0
671257.625,0,0,0,1.000,1.000,1.000,-90.00,180.00,0.00,OPEN,0
671257.674,0,0,0,1.000,1.000,1.000,-90.00,180.00,0.00,OPEN,0
671257.725,0,0,0,1.000,1.000,1.000,-90.00,180.00,0.00,OPEN,0
671257.775,0,0,0,1.000,1.000,1.000,-90.00,180.00,0.00,OPEN,0
671257.825,0,0,0,1.000,1.000,1.000,-90.00,180.00,0.00,OPEN,0
671257.874,0,0,0,1.000,1.000,1.000,-90.00,180.00,0.00,OPEN,0
671257.925,0,0,0,1.000,1.000,1.000,-90.00,180.00,0.00,OPEN,0
671257.975,0,0,0,1.000,1.000,1.000,-90.00,180.00,0.00,OPEN,0
671258.025,0,0,0,1.000,1.000,1.000,-90.00,180.00,0.00,OPEN,0
671258.075,0,0,0,1.000,1.000,1.000,-90.00,180.00,0.00,OPEN,0
671258.125,0,0,0,1.000,1.000,1.000,-90.00,180.00,0.00,OPEN,0
671258.175,0,0,0,1.000,1.000,1.000,-90.00,180.00,0.00,OPEN,0
671258.225,0,0,0,1.000,1.000,1.000,-90.00,180.00,0.00,OPEN,0
671258.276,0,0,0,1.000,1.000,1.000,-90.00,180.00,0.00,OPEN,0
671258.326,0,0,0,1.000,1.000,1.000,-90.00,180.00,0.00,OPEN,0
671258.375,0,0,0,1.000,1.000,1.000,-90.00,180.00,0.00,OPEN,0
671258.426,0,0,0,1.000,1.000,1.000,-90.00,180.00,0.00,OPEN,0
671258.475,0,0,0,1.000,1.000,1.000,-90.00,180.00,0.00,OPEN,0
671258.525,0,0,0,1.000,1.000,1.000,-90.00,180.00,0.00,OPEN,0
671258.575,0,0,0,1.000,1.000,1.000,-90.00,180.00,0.00,OPEN,0
671258.625,0,0,0,1.000,1.000,1.000,-90.00,180.00,0.00,OPEN,0
671258.675,0,0,0,1.000,1.000,1.000,-90.00,180.00,0.00,OPEN,0
671258.730,0,0,0,1.000,1.000,1.000,-90.00,180.00,0.00,OPEN,0
671258.775,0,0,0,1.000,1.000,1.000,-90.00,180.00,0.00,OPEN,0
671258.825,0,0,0,1.000,1.000,1.000,-90.00,180.00,0.00,OPEN,0
671258.875,0,0,0,1.000,1.000,1.000,-90.00,180.00,0.00,OPEN,0
671258.925,0,0,0,1.000,1.000,1.000,-90.00,180.00,0.00,OPEN,0
671258.975,0,0,0,1.000,1.000,1.000,-90.00,180.00,0.00,OPEN,0
671259.025,0,0,0,1.000,1.000,1.000,-90.00,180.00,0.00,OPEN,0
671259.074,0,0,0,1.000,1.000,1.000,-90.00,180.00,0.00,OPEN,0
671259.125,0,0,0,1.000,1.000,1.000,-90.00,180.00,0.00,OPEN,0
671259.175,0,0,0,1.000,1.000,1.000,-90.00,180.00,0.00,OPEN,0
671259.225,0,0,0,1.000,1.000,1.000,-90.00,180.00,0.00,OPEN,0
671259.275,0,0,0,1.000,1.000,1.000,-90.00,180.00,0.00,OPEN,0
671259.325,0,0,0,1.000,1.000,1.000,-90.00,180.00,0.00,OPEN,0
671259.375,0,0,0,1.000,1.000,1.000,-90.00,180.00,0.00,OPEN,0
671259.425,0,0,0,1.000,1.000,1.000,-90.00,180.00,0.00,OPEN,0
671259.475,0,0,0,1.000,1.000,1.000,-90.00,180.00,0.00,OPEN,0
671259.525,0,0,0,1.000,1.000,1.000,-90.00,180.00,0.00,OPEN,0
671259.575,0,0,0,1.000,1.000,1.000,-90.00,180.00,0.00,OPEN,0
671259.624,0,0,0,1.000,1.000,1.000,-90.00,180.00,0.00,OPEN,0
671259.675,0,0,0,1.000,1.000,1.000,-90.00,180.00,0.00,OPEN,0
671259.725,0,0,0,1.000,1.000,1.000,-90.00,180.00,0.00,OPEN,0
671259.775,0,0,0,1.000,1.000,1.000,-90.00,180.00,0.00,OPEN,0
671259.825,0,0,0,1.000,1.000,1.000,-90.00,180.00,0.00,OPEN,0
671259.874,0,0,0,1.000,1.000,1.000,-90.00,180.00,0.00,OPEN,0
671259.925,0,0,0,1.000,1.000,1.000,-90.00,180.00,0.00,OPEN,0
671259.974,0,0,0,1.000,1.000,1.000,-90.00,180.00,0.00,OPEN,0
671260.025,0,0,0,1.000,1.000,1.000,-90.00,180.00,0.00,OPEN,0
671260.075,0,0,0,1.000,1.000,1.000,-90.00,180.00,0.00,OPEN,0
671260.124,0,0,0,1.000,1.000,1.000,-90.00,180.00,0.00,OPEN,0
671260.175,0,0,0,1.000,1.000,1.000,-90.00,180.00,0.00,OPEN,0
671260.247,0,0,0,1.000,1.000,1.000,-90.00,180.00,0.00,OPEN,0
671260.277,0,0,0,1.000,1.000,1.000,-90.00,180.00,0.00,OPEN,0
671260.325,0,0,0,1.000,1.000,1.000,-90.00,180.00,0.00,OPEN,0
671260.374,0,0,0,1.000,1.000,1.000,-90.00,180.00,0.00,OPEN,0
671260.424,0,0,0,1.000,1.000,1.000,-90.00,180.00,0.00,OPEN,0
671260.475,0,0,0,1.000,1.000,1.000,-90.00,180.00,0.00,OPEN,0
671260.525,0,0,0,1.000,1.000,1.000,-90.00,180.00,0.00,OPEN,0
671260.575,0,0,0,1.000,1.000,1.000,-90.00,180.00,0.00,OPEN,0
671260.624,0,0,0,1.000,1.000,1.000,-90.00,180.00,0.00,OPEN,0
671260.675,0,0,0,1.000,1.000,1.000,-90.00,180.00,0.00,OPEN,0
671260.725,0,0,0,1.000,1.000,1.000,-90.00,180.00,0.00,OPEN,0
671260.774,0,0,0,1.000,1.000,1.000,-90.00,180.00,0.00,OPEN,0
671260.825,0,0,0,1.000,1.000,1.000,-90.00,180.00,0.00,OPEN,0
671260.875,0,0,0,1.000,1.000,1.000,-90.00,180.00,0.00,OPEN,0
671260.925,0,0,0,1.000,1.000,1.000,-90.00,180.00,0.00,OPEN,0
671260.975,0,0,0,1.000,1.000,1.000,-90.00,180.00,0.00,OPEN,0
671261.025,0,0,0,1.000,1.000,1.000,-90.00,180.00,0.00,OPEN,0
671261.075,0,0,0,1.000,1.000,1.000,-90.00,180.00,0.00,OPEN,0
671261.125,0,0,0,1.000,1.000,1.000,-90.00,180.00,0.00,OPEN,0
671261.175,0,0,0,1.000,1.000,1.000,-90.00,180.00,0.00,OPEN,0
671261.225,0,0,0,1.000,1.000,1.000,-90.00,180.00,0.00,OPEN,0
671261.275,0,0,0,1.000,1.000,1.000,-90.00,180.00,0.00,OPEN,0
671261.325,0,0,0,1.000,1.000,1.000,-90.00,180.00,0.00,OPEN,0
671261.374,0,0,0,1.000,1.000,1.000,-90.00,180.00,0.00,OPEN,0
671261.424,0,0,0,1.000,1.000,1.000,-90.00,180.00,0.00,OPEN,0
671261.475,0,0,0,1.000,1.000,1.000,-90.00,180.00,0.00,OPEN,0
671261.525,0,0,0,1.000,1.000,1.000,-90.00,180.00,0.00,OPEN,0
671261.575,0,0,0,1.000,1.000,1.000,-90.00,180.00,0.00,OPEN,0
671261.624,0,0,0,1.000,1.000,1.000,-90.00,180.00,0.00,OPEN,0
671261.674,0,0,0,1.000,1.000,1.000,-90.00,180.00,0.00,OPEN,0
671261.725,0,0,0,1.000,1.000,1.000,-90.00,180.00,0.00,OPEN,0
671261.776,0,0,0,1.000,1.000,1.000,-90.00,180.00,0.00,OPEN,0
671261.825,0,0,0,1.000,1.000,1.000,-90.00,180.00,0.00,OPEN,0
671261.885,0,0,0,1.000,1.000,1.000,-90.00,180.00,0.00,OPEN,0
671261.926,0,0,0,1.000,1.000,1.000,-90.00,180.00,0.00,OPEN,0
671261.974,0,0,0,1.000,1.000,1.000,-90.00,180.00,0.00,OPEN,0
671262.024,0,0,0,1.000,1.000,1.000,-90.00,180.00,0.00,OPEN,0
671262.075,0,0,0,1.000,1.000,1.000,-90.00,180.00,0.00,OPEN,0
671262.125,0,0,0,1.000,1.000,1.000,-90.00,180.00,0.00,OPEN,0
671262.175,0,0,0,1.000,1.000,1.000,-90.00,180.00,0.00,OPEN,0
671262.225,0,0,0,1.000,1.000,1.000,-90.00,180.00,0.00,OPEN,0
671262.275,0,0,0,1.000,1.000,1.000,-90.00,180.00,0.00,OPEN,0
671262.325,0,0,0,1.000,1.000,1.000,-90.00,180.00,0.00,OPEN,0
671262.375,0,0,0,1.000,1.000,1.000,-90.00,180.00,0.00,OPEN,0
671262.425,0,0,0,1.000,1.000,1.000,-90.00,180.00,0.00,OPEN,0
671262.475,0,0,0,1.000,1.000,1.000,-90.00,180.00,0.00,OPEN,0
671262.525,0,0,0,1.000,1.000,1.000,-90.00,180.00,0.00,OPEN,0
671262.575,0,0,0,1.000,1.000,1.000,-90.00,180.00,0.00,OPEN,0
671262.625,0,0,0,1.000,1.000,1.000,-90.00,180.00,0.00,OPEN,0
671262.675,0,0,0,1.000,1.000,1.000,-90.00,180.00,0.00,OPEN,0
671262.724,0,0,0,1.000,1.000,1.000,-90.00,180.00,0.00,OPEN,0
671262.774,0,0,0,1.000,1.000,1.000,-90.00,180.00,0.00,OPEN,0
671262.825,0,0,0,1.000,1.000,1.000,-90.00,180.00,0.00,OPEN,0
671262.874,0,0,0,1.000,1.000,1.000,-90.00,180.00,0.00,OPEN,0
671262.925,0,0,0,1.000,1.000,1.000,-90.00,180.00,0.00,OPEN,0
671262.974,0,0,0,1.000,1.000,1.000,-90.00,180.00,0.00,OPEN,0
671263.025,0,0,0,1.000,1.000,1.000,-90.00,180.00,0.00,OPEN,0
671263.075,0,0,0,1.000,1.000,1.000,-90.00,180.00,0.00,OPEN,0
671263.127,0,0,0,1.000,1.000,1.000,-90.00,180.00,0.00,OPEN,0
671263.175,0,0,0,0.998,1.000,1.000,-90.00,180.00,0.00,OPEN,0
671263.225,0,0,0,0.993,0.998,1.000,-90.00,180.00,0.00,OPEN,0
671263.274,0,0,0,0.980,0.978,1.000,-90.00,180.00,0.00,OPEN,0
671263.325,0,0,0,0.972,0.957,1.000,-90.00,180.00,0.00,OPEN,0
671263.396,0,0,0,0.958,1.000,1.000,-90.00,180.00,0.00,OPEN,0
671263.428,0,0,0,0.881,1.000,1.000,-90.00,180.00,0.00,OPEN,0
671263.475,0,0,0,0.600,1.000,1.000,-90.00,180.00,0.00,OPEN,0
671263.525,0,0,0,0.496,1.000,1.000,-90.00,180.00,0.00,OPEN,0
671263.575,0,0,0,0.629,1.000,1.000,-90.00,180.00,0.00,OPEN,0
671263.625,0,0,0,0.832,1.000,1.000,-90.00,180.00,0.00,OPEN,0
671263.675,0,0,0,0.889,1.000,1.000,-90.00,180.00,0.00,OPEN,0
671263.725,0,0,0,0.903,1.000,1.000,-90.00,180.00,0.00,OPEN,0
671263.775,0,0,0,0.939,1.000,1.000,-90.00,180.00,0.00,OPEN,0
671263.824,0,0,0,0.955,1.000,1.000,-90.00,180.00,0.00,OPEN,0
671263.874,0,0,0,0.949,1.000,1.000,-90.00,180.00,0.00,OPEN,0
671263.925,2,0,0,0.898,1.000,1.000,-90.00,180.00,0.00,OPEN,0
671263.975,2,0,0,0.730,1.000,1.000,-90.00,180.00,0.00,OPEN,0
671264.025,2,0,0,0.525,1.000,1.000,-90.00,180.00,0.00,OPEN,0
671264.075,2,0,0,0.780,1.000,1.000,-90.00,180.00,0.00,OPEN,0
671264.125,2,0,0,0.922,1.000,1.000,-90.00,180.00,0.00,OPEN,0
671264.175,2,0,0,0.972,1.000,1.000,-90.00,180.00,0.00,OPEN,0
671264.225,2,0,0,0.987,1.000,1.000,-90.00,180.00,0.00,OPEN,0
671264.275,2,1,0,0.993,1.000,1.000,-90.00,180.00,0.00,OPEN,0
671264.325,2,1,0,0.996,1.000,1.000,-90.00,180.00,0.00,OPEN,0
671264.374,2,1,0,0.997,1.000,1.000,-90.00,180.00,0.00,OPEN,0
671264.443,0,1,0,0.998,1.000,1.000,-90.00,180.00,0.00,OPEN,0
671264.480,0,1,0,0.998,1.000,1.000,-90.00,180.00,0.00,OPEN,0
671264.524,0,1,0,0.998,1.000,1.000,-90.00,180.00,0.00,OPEN,0
671264.575,0,1,0,0.998,1.000,1.000,-90.00,180.00,0.00,OPEN,0
671264.624,0,1,0,1.000,1.000,1.000,-90.00,180.00,0.00,OPEN,0
671264.675,0,1,0,1.000,1.000,1.000,-90.00,180.00,0.00,OPEN,0
671264.725,0,1,0,1.000,1.000,1.000,-90.00,180.00,0.00,OPEN,0
671264.775,0,1,0,1.000,1.000,1.000,-90.00,180.00,0.00,OPEN,0
671264.825,0,1,0,1.000,1.000,1.000,-90.00,180.00,0.00,OPEN,0
671264.875,0,1,0,1.000,1.000,1.000,-90.00,180.00,0.00,OPEN,0
671264.925,0,1,0,1.000,1.000,1.000,-90.00,180.00,0.00,OPEN,0
671264.975,0,1,0,1.000,1.000,1.000,-90.00,180.00,0.00,OPEN,0
671265.027,0,1,0,1.000,1.000,1.000,-90.00,180.00,0.00,OPEN,0
671265.075,0,1,0,1.000,1.000,1.000,-90.00,180.00,0.00,OPEN,0
671265.124,0,1,0,1.000,1.000,1.000,-90.00,180.00,0.00,OPEN,0
671265.174,0,1,0,1.000,1.000,1.000,-90.00,180.00,0.00,OPEN,0
671265.225,0,1,0,1.000,1.000,1.000,-90.00,180.00,0.00,OPEN,0
671265.274,0,1,0,1.000,1.000,1.000,-90.00,180.00,0.00,OPEN,0
671265.325,0,1,0,1.000,1.000,1.000,-90.00,180.00,0.00,OPEN,0
671265.374,0,1,0,1.000,1.000,1.000,-90.00,180.00,0.00,OPEN,0
671265.424,0,1,0,1.000,1.000,1.000,-90.00,180.00,0.00,OPEN,0
671265.475,0,1,0,1.000,1.000,1.000,-90.00,180.00,0.00,OPEN,0
671265.525,0,1,0,1.000,1.000,1.000,-90.00,180.00,0.00,OPEN,0
671265.574,0,1,0,1.000,1.000,1.000,-90.00,180.00,0.00,OPEN,0
671265.625,0,1,0,1.000,1.000,1.000,-90.00,180.00,0.00,OPEN,0
671265.675,0,1,0,1.000,1.000,1.000,-90.00,180.00,0.00,OPEN,0
671265.724,0,1,0,1.000,1.000,1.000,-90.00,180.00,0.00,OPEN,0
671265.775,0,1,0,1.000,1.000,1.000,-90.00,180.00,0.00,OPEN,0
671265.825,0,1,0,1.000,1.000,1.000,-90.00,180.00,0.00,OPEN,0
671265.875,0,1,0,1.000,1.000,1.000,-90.00,180.00,0.00,OPEN,0
671265.941,0,1,0,1.000,1.000,1.000,-90.00,180.00,0.00,OPEN,0
671265.975,0,1,0,1.000,1.000,1.000,-90.00,180.00,0.00,OPEN,0
671266.024,0,1,0,1.000,1.000,1.000,-90.00,180.00,0.00,OPEN,0
671266.074,0,1,0,1.000,1.000,1.000,-90.00,180.00,0.00,OPEN,0
671266.125,0,1,0,1.000,1.000,1.000,-90.00,180.00,0.00,OPEN,0
671266.176,0,1,0,1.000,1.000,1.000,-90.00,180.00,0.00,OPEN,0
671266.225,0,1,0,1.000,1.000,1.000,-90.00,180.00,0.00,OPEN,0
671266.274,0,1,0,1.000,1.000,1.000,-90.00,180.00,0.00,OPEN,0
671266.325,0,1,0,1.000,1.000,1.000,-90.00,180.00,0.00,OPEN,0
671266.375,0,1,0,1.000,1.000,1.000,-90.00,180.00,0.00,OPEN,0
671266.425,0,1,0,1.000,1.000,1.000,-90.00,180.00,0.00,OPEN,0
671266.475,0,1,0,1.000,1.000,1.000,-90.00,180.00,0.00,OPEN,0
671266.525,0,1,0,1.000,1.000,1.000,-90.00,180.00,0.00,OPEN,0
671266.574,0,1,0,1.000,1.000,1.000,-90.00,180.00,0.00,OPEN,0
671266.625,0,1,0,1.000,1.000,1.000,-90.00,180.00,0.00,OPEN,0
671266.674,0,1,0,1.000,1.000,1.000,-90.00,180.00,0.00,OPEN,0
671266.724,0,1,0,1.000,1.000,1.000,-90.00,180.00,0.00,OPEN,0
671266.774,0,1,0,1.000,1.000,1.000,-90.00,180.00,0.00,OPEN,0
671266.825,0,1,0,1.000,1.000,1.000,-90.00,180.00,0.00,OPEN,0
671266.875,0,1,0,1.000,1.000,1.000,-90.00,180.00,0.00,OPEN,0
671266.925,0,1,0,1.000,1.000,1.000,-90.00,180.00,0.00,OPEN,0
671266.975,0,1,0,1.000,1.000,1.000,-90.00,180.00,0.00,OPEN,0
671267.025,0,1,0,1.000,1.000,1.000,-90.00,180.00,0.00,OPEN,0
671267.074,0,1,0,1.000,1.000,1.000,-90.00,180.00,0.00,OPEN,0
671267.124,0,1,0,1.000,1.000,1.000,-90.00,180.00,0.00,OPEN,0
671267.175,0,1,0,1.000,1.000,1.000,-90.00,180.00,0.00,OPEN,0
671267.225,0,1,0,1.000,1.000,1.000,-90.00,180.00,0.00,OPEN,0
671267.274,0,1,0,1.000,1.000,1.000,-90.00,180.00,0.00,OPEN,0
671267.325,0,1,0,1.000,1.000,1.000,-90.00,180.00,0.00,OPEN,0
671267.385,0,1,0,1.000,1.000,1.000,-90.00,180.00,0.00,OPEN,0
671267.433,0,1,0,1.000,1.000,1.000,-90.00,180.00,0.00,OPEN,0
671267.477,0,1,0,1.000,1.000,1.000,-90.00,180.00,0.00,OPEN,0
671267.526,0,1,0,1.000,1.000,1.000,-90.00,180.00,0.00,OPEN,0
671267.576,0,1,0,1.000,1.000,1.000,-90.00,180.00,0.00,OPEN,0
671267.625,0,1,0,1.000,1.000,1.000,-90.00,180.00,0.00,OPEN,0
671267.675,0,1,0,1.000,1.000,1.000,-90.00,180.00,0.00,OPEN,0
671267.725,0,1,0,1.000,1.000,1.000,-90.00,180.00,0.00,OPEN,0
671267.776,0,1,0,1.000,1.000,1.000,-90.00,180.00,0.00,OPEN,0
671267.825,0,1,0,1.000,1.000,1.000,-90.00,180.00,0.00,OPEN,0
671267.878,0,1,0,1.000,1.000,1.000,-90.00,180.00,0.00,OPEN,0
671267.925,0,1,0,1.000,1.000,1.000,-90.00,180.00,0.00,OPEN,0
671267.974,0,1,0,1.000,1.000,1.000,-90.00,180.00,0.00,OPEN,0
671268.025,0,1,0,1.000,1.000,1.000,-90.00,180.00,0.00,OPEN,0
671268.075,0,1,0,1.000,1.000,1.000,-90.00,180.00,0.00,OPEN,0
671268.125,0,1,0,1.000,1.000,1.000,-90.00,180.00,0.00,OPEN,0
671268.175,0,1,0,1.000,1.000,1.000,-90.00,180.00,0.00,OPEN,0
671268.224,0,1,0,1.000,1.000,1.000,-90.00,180.00,0.00,OPEN,0
671268.275,0,1,0,1.000,1.000,1.000,-90.00,180.00,0.00,OPEN,0
671268.326,0,1,0,1.000,1.000,1.000,-90.00,180.00,0.00,OPEN,0
671268.375,0,1,0,1.000,1.000,1.000,-90.00,180.00,0.00,OPEN,0
671268.425,0,1,0,1.000,1.000,1.000,-90.00,180.00,0.00,OPEN,0
671268.475,0,1,0,1.000,1.000,1.000,-90.00,180.00,0.00,OPEN,0
671268.525,0,1,0,1.000,1.000,1.000,-90.00,180.00,0.00,OPEN,0
671268.574,0,1,0,1.000,1.000,1.000,-90.00,180.00,0.00,OPEN,0
671268.625,0,1,0,1.000,1.000,1.000,-90.00,180.00,0.00,OPEN,0
671268.675,0,1,0,1.000,1.000,1.000,-90.00,180.00,0.00,OPEN,0
671268.725,0,1,0,1.000,1.000,1.000,-90.00,180.00,0.00,OPEN,0
671268.775,0,1,0,1.000,1.000,1.000,-90.00,180.00,0.00,OPEN,0
671268.824,0,1,0,1.000,1.000,1.000,-90.00,180.00,0.00,OPEN,0
671268.875,0,1,0,1.000,1.000,1.000,-90.00,180.00,0.00,OPEN,0
671268.938,0,1,0,1.000,1.000,1.000,-90.00,180.00,0.00,OPEN,0
671268.980,0,1,0,1.000,1.000,1.000,-90.00,180.00,0.00,OPEN,0
671269.025,0,1,0,1.000,1.000,1.000,-90.00,180.00,0.00,OPEN,0
671269.078,0,1,0,1.000,1.000,1.000,-90.00,180.00,0.00,OPEN,0
671269.127,0,1,0,1.000,0.993,1.000,-90.00,180.00,0.00,OPEN,0
671269.175,0,1,0,1.000,0.947,1.000,-90.00,180.00,0.00,OPEN,0
671269.225,0,1,0,1.000,0.842,1.000,-90.00,180.00,0.00,OPEN,0
671269.274,0,1,0,1.000,0.684,1.000,-90.00,180.00,0.00,OPEN,0
671269.325,0,1,0,1.000,0.748,1.000,-90.00,180.00,0.00,OPEN,0
671269.375,0,1,0,1.000,0.994,1.000,-90.00,180.00,0.00,OPEN,0
671269.425,0,1,0,1.000,1.000,1.000,-90.00,180.00,0.00,OPEN,0
671269.477,0,1,0,1.000,1.000,1.000,-90.00,180.00,0.00,OPEN,0
671269.524,0,1,0,1.000,1.000,1.000,-90.00,180.00,0.00,OPEN,0
671269.574,0,1,0,1.000,1.000,1.000,-90.00,180.00,0.00,OPEN,0
671269.625,0,1,0,1.000,1.000,1.000,-90.00,180.00,0.00,OPEN,0
671269.675,0,1,0,1.000,1.000,1.000,-90.00,180.00,0.00,OPEN,0
671269.725,0,1,0,1.000,1.000,1.000,-90.00,180.00,0.00,OPEN,0
671269.775,0,1,0,1.000,1.000,1.000,-90.00,180.00,0.00,OPEN,0
671269.825,0,1,0,1.000,1.000,1.000,-90.00,180.00,0.00,OPEN,0
671269.880,0,1,0,1.000,1.000,1.000,-90.00,180.00,0.00,OPEN,0
671269.925,0,1,0,1.000,1.000,1.000,-90.00,180.00,0.00,OPEN,0
671269.974,0,1,0,1.000,1.000,1.000,-90.00,180.00,0.00,OPEN,0
671270.024,0,1,0,1.000,1.000,1.000,-90.00,180.00,0.00,OPEN,0
671270.075,0,1,0,1.000,1.000,1.000,-90.00,180.00,0.00,OPEN,0
671270.124,0,1,0,1.000,1.000,1.000,-90.00,180.00,0.00,OPEN,0
671270.175,0,1,0,1.000,1.000,1.000,-90.00,180.00,0.00,OPEN,0
671270.225,0,0,0,1.000,1.000,1.000,-90.00,180.00,0.00,OPEN,0
671270.275,0,0,0,1.000,1.000,1.000,-90.00,180.00,0.00,OPEN,0
671270.324,0,0,0,1.000,1.000,1.000,-90.00,180.00,0.00,OPEN,0
671270.375,0,0,0,1.000,1.000,1.000,-90.00,180.00,0.00,OPEN,0
671270.425,0,0,0,1.000,1.000,1.000,-90.00,180.00,0.00,OPEN,0
671270.475,0,0,0,1.000,1.000,1.000,-90.00,180.00,0.00,OPEN,0
671270.525,0,0,0,1.000,1.000,1.000,-90.00,180.00,0.00,OPEN,0
671270.574,0,0,0,1.000,1.000,1.000,-90.00,180.00,0.00,OPEN,0
671270.625,0,0,0,1.000,1.000,1.000,-90.00,180.00,0.00,OPEN,0
671270.675,0,0,0,1.000,1.000,1.000,-90.00,180.00,0.00,OPEN,0
671270.725,0,0,0,1.000,1.000,1.000,-90.00,180.00,0.00,OPEN,0
671270.775,0,0,0,1.000,1.000,1.000,-90.00,180.00,0.00,OPEN,0
671270.825,0,0,0,1.000,1.000,1.000,-90.00,180.00,0.00,OPEN,0
671270.875,0,0,0,1.000,1.000,1.000,-90.00,180.00,0.00,OPEN,0
671270.925,0,0,0,1.000,1.000,1.000,-90.00,180.00,0.00,OPEN,0
671270.976,0,0,0,1.000,1.000,1.000,-90.00,180.00,0.00,OPEN,0
671271.025,0,0,0,1.000,1.000,1.000,-90.00,180.00,0.00,OPEN,0
671271.075,0,0,0,1.000,1.000,1.000,-90.00,180.00,0.00,OPEN,0
671271.124,0,0,0,1.000,1.000,1.000,-90.00,180.00,0.00,OPEN,0
671271.175,0,0,0,1.000,1.000,1.000,-90.00,180.00,0.00,OPEN,0
671271.225,0,0,0,1.000,1.000,1.000,-90.00,180.00,0.00,OPEN,0
671271.275,0,0,0,1.000,1.000,1.000,-90.00,180.00,0.00,OPEN,0
671271.325,0,0,0,1.000,1.000,1.000,-90.00,180.00,0.00,OPEN,0
671271.375,0,0,0,1.000,1.000,1.000,-90.00,180.00,0.00,OPEN,0
671271.425,0,0,0,1.000,1.000,1.000,-90.00,180.00,0.00,OPEN,0
671271.475,0,0,0,1.000,1.000,1.000,-90.00,180.00,0.00,OPEN,0
671271.540,0,0,0,1.000,1.000,1.000,-90.00,180.00,0.00,OPEN,0
671271.578,0,0,0,1.000,1.000,1.000,-90.00,180.00,0.00,OPEN,0
671271.625,0,0,0,1.000,1.000,1.000,-90.00,180.00,0.00,OPEN,0
671271.675,0,0,0,1.000,1.000,1.000,-90.00,180.00,0.00,OPEN,0
671271.725,0,0,0,1.000,1.000,1.000,-90.00,180.00,0.00,OPEN,0
671271.774,0,0,0,1.000,1.000,1.000,-90.00,180.00,0.00,OPEN,0
671271.825,0,0,0,1.000,1.000,1.000,-90.00,180.00,0.00,OPEN,0
671271.875,0,0,0,1.000,1.000,1.000,-90.00,180.00,0.00,OPEN,0
671271.924,0,0,0,1.000,1.000,1.000,-90.00,180.00,0.00,OPEN,0
671271.975,0,0,0,1.000,1.000,1.000,-90.00,180.00,0.00,OPEN,0
671272.025,0,0,0,1.000,1.000,1.000,-90.00,180.00,0.00,OPEN,0
671272.075,0,0,0,1.000,1.000,1.000,-90.00,180.00,0.00,OPEN,0
671272.125,0,0,0,1.000,1.000,1.000,-90.00,180.00,0.00,OPEN,0
671272.175,0,0,0,1.000,1.000,1.000,-90.00,180.00,0.00,OPEN,0
671272.225,0,0,0,1.000,1.000,1.000,-90.00,180.00,0.00,OPEN,0
671272.275,0,0,0,1.000,1.000,1.000,-90.00,180.00,0.00,OPEN,0
671272.326,0,0,0,1.000,1.000,1.000,-90.00,180.00,0.00,OPEN,0
671272.375,0,0,0,1.000,1.000,1.000,-90.00,180.00,0.00,OPEN,0
671272.425,0,0,0,1.000,1.000,1.000,-90.00,180.00,0.00,OPEN,0
671272.475,0,0,0,1.000,1.000,1.000,-90.00,180.00,0.00,OPEN,0
671272.525,0,0,0,1.000,1.000,1.000,-90.00,180.00,0.00,OPEN,0
671272.575,0,0,0,1.000,1.000,1.000,-90.00,180.00,0.00,OPEN,0
671272.624,0,0,0,1.000,1.000,1.000,-90.00,180.00,0.00,OPEN,0
671272.675,0,0,0,1.000,1.000,1.000,-90.00,180.00,0.00,OPEN,0
671272.724,0,0,0,1.000,1.000,1.000,-90.00,180.00,0.00,OPEN,0
671272.774,0,0,0,1.000,1.000,1.000,-90.00,180.00,0.00,OPEN,0
671272.825,0,0,0,1.000,1.000,1.000,-90.00,180.00,0.00,OPEN,0
671272.874,0,0,0,1.000,1.000,1.000,-90.00,180.00,0.00,OPEN,0
671272.925,0,0,0,1.000,1.000,1.000,-90.00,180.00,0.00,OPEN,0
671272.985,0,0,0,1.000,1.000,1.000,-90.00,180.00,0.00,OPEN,0
671273.027,0,0,0,1.000,1.000,1.000,-90.00,180.00,0.00,OPEN,0
671273.074,0,0,0,1.000,1.000,1.000,-90.00,180.00,0.00,OPEN,0
671273.125,0,0,0,1.000,1.000,1.000,-90.00,180.00,0.00,OPEN,0
671273.175,0,0,0,1.000,1.000,1.000,-90.00,180.00,0.00,OPEN,0
671273.225,0,0,0,1.000,1.000,1.000,-90.00,180.00,0.00,OPEN,0
671273.274,0,0,0,1.000,1.000,1.000,-90.00,180.00,0.00,OPEN,0
671273.325,0,0,0,1.000,1.000,1.000,-90.00,180.00,0.00,OPEN,0
671273.375,0,0,0,1.000,1.000,1.000,-90.00,180.00,0.00,OPEN,0
671273.425,0,0,0,1.000,1.000,1.000,-90.00,180.00,0.00,OPEN,0
671273.474,0,0,0,1.000,1.000,1.000,-90.00,180.00,0.00,OPEN,0
671273.525,0,0,0,1.000,1.000,1.000,-90.00,180.00,0.00,OPEN,0
671273.575,0,0,0,1.000,1.000,1.000,-90.00,180.00,0.00,OPEN,0
671273.624,0,0,0,1.000,1.000,1.000,-90.00,180.00,0.00,OPEN,0
671273.675,0,0,0,1.000,1.000,1.000,-90.00,180.00,0.00,OPEN,0
671273.724,0,0,0,1.000,1.000,1.000,-90.00,180.00,0.00,OPEN,0
671273.775,0,0,0,1.000,1.000,1.000,-90.00,180.00,0.00,OPEN,0
671273.825,0,0,0,1.000,1.000,1.000,-90.00,180.00,0.00,OPEN,0
671273.875,0,0,0,1.000,1.000,1.000,-90.00,180.00,0.00,OPEN,0
671273.924,0,0,0,1.000,1.000,1.000,-90.00,180.00,0.00,OPEN,0
671273.975,0,0,0,1.000,1.000,1.000,-90.00,180.00,0.00,OPEN,0
671274.025,0,0,0,1.000,1.000,1.000,-90.00,180.00,0.00,OPEN,0
671274.075,0,0,0,1.000,1.000,1.000,-90.00,180.00,0.00,OPEN,0
671274.125,0,0,0,1.000,1.000,1.000,-90.00,180.00,0.00,OPEN,0
671274.175,0,0,0,1.000,1.000,1.000,-90.00,180.00,0.00,OPEN,0
671274.224,0,0,0,1.000,1.000,1.000,-90.00,180.00,0.00,OPEN,0
671274.275,0,0,0,1.000,1.000,1.000,-90.00,180.00,0.00,OPEN,0
671274.344,0,0,0,1.000,1.000,1.000,-90.00,180.00,0.00,OPEN,0
671274.378,0,0,0,1.000,1.000,1.000,-90.00,180.00,0.00,OPEN,0
671274.425,0,0,0,1.000,1.000,1.000,-90.00,180.00,0.00,OPEN,0
671274.474,0,0,0,1.000,1.000,1.000,-90.00,180.00,0.00,OPEN,0
671274.525,0,0,0,1.000,1.000,1.000,-90.00,180.00,0.00,OPEN,0
671274.575,0,0,0,1.000,1.000,1.000,-90.00,180.00,0.00,OPEN,0
671274.625,0,0,0,1.000,1.000,1.000,-90.00,180.00,0.00,OPEN,0
671274.675,0,0,0,1.000,1.000,1.000,-90.00,180.00,0.00,OPEN,0
671274.725,0,0,0,1.000,1.000,1.000,-90.00,180.00,0.00,OPEN,0
671274.775,0,0,0,1.000,1.000,1.000,-90.00,180.00,0.00,OPEN,0
671274.825,0,0,0,1.000,1.000,1.000,-90.00,180.00,0.00,OPEN,0
671274.875,0,0,0,1.000,1.000,1.000,-90.00,180.00,0.00,OPEN,0
671274.925,0,0,0,1.000,1.000,1.000,-90.00,180.00,0.00,OPEN,0
671274.975,0,0,0,1.000,1.000,1.000,-90.00,180.00,0.00,OPEN,0
671275.024,0,0,0,1.000,1.000,1.000,-90.00,180.00,0.00,OPEN,0
671275.075,0,0,0,1.000,1.000,1.000,-90.00,180.00,0.00,OPEN,0
671275.125,0,0,0,1.000,1.000,1.000,-90.00,180.00,0.00,OPEN,0
671275.175,0,0,0,1.000,1.000,1.000,-90.00,180.00,0.00,OPEN,0
671275.225,0,0,0,1.000,1.000,1.000,-90.00,180.00,0.00,OPEN,0
671275.275,0,0,0,1.000,1.000,1.000,-90.00,180.00,0.00,OPEN,0
671275.325,0,0,0,1.000,1.000,1.000,-90.00,180.00,0.00,OPEN,0
671275.375,0,0,0,1.000,1.000,1.000,-90.00,180.00,0.00,OPEN,0
671275.425,0,0,0,1.000,1.000,1.000,-90.00,180.00,0.00,OPEN,0
671275.475,0,0,0,1.000,1.000,1.000,-90.00,180.00,0.00,OPEN,0
671275.524,0,0,0,1.000,1.000,1.000,-90.00,180.00,0.00,OPEN,0
671275.585,0,0,0,1.000,1.000,1.000,-90.00,180.00,0.00,OPEN,0
671275.626,0,0,0,1.000,1.000,1.000,-90.00,180.00,0.00,OPEN,0
671275.675,0,0,0,1.000,1.000,1.000,-90.00,180.00,0.00,OPEN,0
671275.725,0,0,0,1.000,1.000,1.000,-90.00,180.00,0.00,OPEN,0
671275.775,0,0,0,1.000,1.000,1.000,-90.00,180.00,0.00,OPEN,0
671275.825,0,0,0,1.000,1.000,1.000,-90.00,180.00,0.00,OPEN,0
671275.875,0,0,0,1.000,1.000,1.000,-90.00,180.00,0.00,OPEN,0
671275.925,0,0,0,1.000,1.000,1.000,-90.00,180.00,0.00,OPEN,0
671275.976,0,0,0,1.000,1.000,1.000,-90.00,180.00,0.00,OPEN,0
671276.025,0,0,0,1.000,1.000,1.000,-90.00,180.00,0.00,OPEN,0
671276.074,0,0,0,1.000,1.000,1.000,-90.00,180.00,0.00,OPEN,0
671276.125,0,0,0,1.000,1.000,1.000,-90.00,180.00,0.00,OPEN,0
671276.176,0,0,0,1.000,1.000,1.000,-90.00,180.00,0.00,OPEN,0
671276.225,0,0,0,1.000,1.000,1.000,-90.00,180.00,0.00,OPEN,0
671276.275,0,0,0,1.000,1.000,1.000,-90.00,180.00,0.00,OPEN,0
671276.325,0,0,0,1.000,1.000,1.000,-90.00,180.00,0.00,OPEN,0
671276.382,0,0,0,1.000,1.000,1.000,-90.00,180.00,0.00,OPEN,0
671276.426,0,0,0,1.000,1.000,1.000,-90.00,180.00,0.00,OPEN,0
671276.476,0,0,0,1.000,1.000,1.000,-90.00,180.00,0.00,OPEN,0
671276.525,0,0,0,1.000,1.000,1.000,-90.00,180.00,0.00,OPEN,0
671276.577,0,0,0,1.000,1.000,1.000,-90.00,180.00,0.00,OPEN,0
671276.625,0,0,0,1.000,1.000,1.000,-90.00,180.00,0.00,OPEN,0
671276.676,0,0,0,1.000,1.000,1.000,-90.00,180.00,0.00,OPEN,0
671276.727,0,0,0,1.000,1.000,1.000,-90.00,180.00,0.00,OPEN,0
671276.776,0,0,0,1.000,1.000,1.000,-90.00,180.00,0.00,OPEN,0
671276.826,0,0,0,1.000,1.000,0.999,-90.00,180.00,0.00,OPEN,0
671276.875,0,0,0,0.999,1.000,0.990,-90.00,180.00,0.00,OPEN,0
671276.926,0,0,0,0.999,1.000,0.947,-90.00,180.00,0.00,OPEN,0
671276.976,0,0,0,1.000,0.997,0.840,-90.00,180.00,0.00,OPEN,0
671277.027,0,0,0,1.000,0.948,0.678,-90.00,180.00,0.00,OPEN,0
671277.077,0,0,0,1.000,0.754,0.528,-90.00,180.00,0.00,OPEN,0
671277.126,0,0,0,1.000,0.996,0.731,-90.00,180.00,0.00,OPEN,0
671277.175,0,0,0,0.999,1.000,0.896,-90.00,180.00,0.00,OPEN,0
671277.225,0,0,0,0.992,1.000,0.980,-90.00,180.00,0.00,OPEN,0
671277.275,0,0,0,0.981,1.000,0.996,-90.00,180.00,0.00,OPEN,0
671277.327,0,0,0,0.999,1.000,0.999,-90.00,180.00,0.00,OPEN,0
671277.375,0,0,0,1.000,1.000,1.000,-90.00,180.00,0.00,OPEN,0
671277.425,0,0,0,1.000,1.000,1.000,-90.00,180.00,0.00,OPEN,0
671277.475,0,0,0,1.000,1.000,1.000,-90.00,180.00,0.00,OPEN,0
671277.525,0,0,0,1.000,1.000,1.000,-90.00,180.00,0.00,OPEN,0
671277.575,0,0,0,1.000,1.000,1.000,-90.00,180.00,0.00,OPEN,0
671277.625,0,0,0,1.000,1.000,1.000,-90.00,180.00,0.00,OPEN,0
671277.674,0,0,0,1.000,1.000,1.000,-90.00,180.00,0.00,OPEN,0
671277.725,0,0,0,1.000,1.000,1.000,-90.00,180.00,0.00,OPEN,0
671277.775,0,0,0,1.000,1.000,1.000,-90.00,180.00,0.00,OPEN,0
671277.825,0,0,0,0.999,1.000,1.000,-90.00,180.00,0.00,OPEN,0
671277.875,0,0,0,0.995,1.000,1.000,-90.00,180.00,0.00,OPEN,0
671277.952,0,0,0,0.990,1.000,1.000,-90.00,180.00,0.00,OPEN,0
671277.978,0,1,1,1.000,0.969,1.000,-90.00,180.00,0.00,OPEN,0
671278.025,0,1,1,1.000,0.991,1.000,-90.00,180.00,0.00,OPEN,0
671278.074,0,1,1,1.000,1.000,1.000,-90.00,180.00,0.00,OPEN,0
671278.125,0,1,1,1.000,1.000,1.000,-90.00,180.00,0.00,OPEN,0
671278.175,0,1,1,1.000,1.000,1.000,-90.00,180.00,0.00,OPEN,0
671278.225,0,1,1,1.000,1.000,1.000,-90.00,180.00,0.00,OPEN,0
671278.274,0,1,1,1.000,1.000,1.000,-90.00,180.00,0.00,OPEN,0
671278.325,0,1,1,1.000,1.000,1.000,-90.00,180.00,0.00,OPEN,0
671278.375,0,1,1,1.000,1.000,1.000,-90.00,180.00,0.00,OPEN,0
671278.424,0,1,1,1.000,1.000,1.000,-90.00,180.00,0.00,OPEN,0
671278.475,0,1,1,1.000,1.000,1.000,-90.00,180.00,0.00,OPEN,0
671278.525,0,1,1,1.000,1.000,1.000,-90.00,180.00,0.00,OPEN,0
671278.575,0,1,1,1.000,1.000,1.000,-90.00,180.00,0.00,OPEN,0
671278.625,0,1,1,1.000,1.000,1.000,-90.00,180.00,0.00,OPEN,0
671278.675,0,1,1,1.000,1.000,1.000,-90.00,180.00,0.00,OPEN,0
671278.725,0,1,1,1.000,1.000,1.000,-90.00,180.00,0.00,OPEN,0
671278.775,0,1,1,1.000,1.000,1.000,-90.00,180.00,0.00,OPEN,0
671278.824,0,1,1,1.000,1.000,1.000,-90.00,180.00,0.00,OPEN,0
671278.874,0,1,1,1.000,1.000,1.000,-90.00,180.00,0.00,OPEN,0
671278.925,0,0,1,1.000,1.000,1.000,-90.00,180.00,0.00,OPEN,0
671278.975,0,0,1,1.000,0.999,1.000,-90.00,180.00,0.00,OPEN,0
671279.024,0,0,1,1.000,0.997,1.000,-90.00,180.00,0.00,OPEN,0
671279.074,0,0,1,1.000,0.996,1.000,-90.00,180.00,0.00,OPEN,0
671279.124,0,0,1,1.000,0.998,1.000,-90.00,180.00,0.00,OPEN,0
671279.174,0,0,1,1.000,0.999,1.000,-90.00,180.00,0.00,OPEN,0
671279.225,0,0,1,1.000,1.000,1.000,-90.00,180.00,0.00,OPEN,0
671279.275,0,0,1,1.000,1.000,1.000,-90.00,180.00,0.00,OPEN,0
671279.325,0,0,1,1.000,1.000,1.000,-90.00,180.00,0.00,OPEN,0
671279.377,0,0,1,1.000,1.000,1.000,-90.00,180.00,0.00,OPEN,0
671279.424,0,0,1,1.000,1.000,1.000,-90.00,180.00,0.00,OPEN,0
671279.475,0,0,1,1.000,1.000,1.000,-90.00,180.00,0.00,OPEN,0
671279.525,0,0,1,1.000,1.000,1.000,-90.00,180.00,0.00,OPEN,0
671279.575,0,0,1,1.000,1.000,1.000,-90.00,180.00,0.00,OPEN,0
671279.624,0,0,1,1.000,1.000,1.000,-90.00,180.00,0.00,OPEN,0
671279.674,0,0,1,1.000,1.000,1.000,-90.00,180.00,0.00,OPEN,0
671279.725,0,0,1,1.000,1.000,1.000,-90.00,180.00,0.00,OPEN,0
671279.775,0,0,1,1.000,1.000,1.000,-90.00,180.00,0.00,OPEN,0
671279.825,0,0,1,1.000,1.000,1.000,-90.00,180.00,0.00,OPEN,0
671279.875,0,0,1,1.000,1.000,1.000,-90.00,180.00,0.00,OPEN,0
671279.925,0,0,1,1.000,1.000,1.000,-90.00,180.00,0.00,OPEN,0
671279.975,0,0,1,1.000,1.000,1.000,-90.00,180.00,0.00,OPEN,0
671280.025,0,0,1,1.000,1.000,1.000,-90.00,180.00,0.00,OPEN,0
671280.075,0,0,1,1.000,1.000,1.000,-90.00,180.00,0.00,OPEN,0
671280.126,0,0,1,1.000,1.000,1.000,-90.00,180.00,0.00,OPEN,0
671280.174,0,0,1,1.000,1.000,1.000,-90.00,180.00,0.00,OPEN,0
671280.235,0,0,1,1.000,1.000,1.000,-90.00,180.00,0.00,OPEN,0
671280.282,0,0,1,1.000,1.000,1.000,-90.00,180.00,0.00,OPEN,0
671280.325,0,0,1,1.000,1.000,1.000,-90.00,180.00,0.00,OPEN,0
671280.376,0,0,1,1.000,1.000,1.000,-90.00,180.00,0.00,OPEN,0
671280.426,0,0,1,1.000,1.000,1.000,-90.00,180.00,0.00,OPEN,0
671280.475,0,0,1,1.000,1.000,1.000,-90.00,180.00,0.00,OPEN,0
671280.526,0,0,1,1.000,1.000,1.000,-90.00,180.00,0.00,OPEN,0
671280.576,0,0,1,1.000,1.000,1.000,-90.00,180.00,0.00,OPEN,0
671280.625,0,0,1,1.000,1.000,1.000,-90.00,180.00,0.00,OPEN,0
671280.675,0,0,1,1.000,1.000,1.000,-90.00,180.00,0.00,OPEN,0
671280.725,0,0,1,1.000,1.000,1.000,-90.00,180.00,0.00,OPEN,0
671280.776,0,0,1,1.000,1.000,1.000,-90.00,180.00,0.00,OPEN,0
671280.825,0,0,1,1.000,1.000,1.000,-90.00,180.00,0.00,OPEN,0
671280.876,0,0,1,1.000,1.000,1.000,-90.00,180.00,0.00,OPEN,0
671280.925,0,0,1,1.000,1.000,1.000,-90.00,180.00,0.00,OPEN,0
671280.975,0,0,1,1.000,1.000,1.000,-90.00,180.00,0.00,OPEN,0
671281.026,0,0,1,1.000,1.000,1.000,-90.00,180.00,0.00,OPEN,0
671281.079,0,0,1,1.000,1.000,1.000,-90.00,180.00,0.00,OPEN,0
671281.126,0,0,1,1.000,1.000,1.000,-90.00,180.00,0.00,OPEN,0
671281.175,0,0,1,1.000,1.000,1.000,-90.00,180.00,0.00,OPEN,0
671281.225,0,0,1,1.000,1.000,1.000,-90.00,180.00,0.00,OPEN,0
671281.285,0,0,1,1.000,1.000,1.000,-90.00,180.00,0.00,OPEN,0
671281.326,0,0,1,1.000,1.000,1.000,-90.00,180.00,0.00,OPEN,0
671281.379,0,0,1,1.000,1.000,1.000,-90.00,180.00,0.00,OPEN,0
671281.426,0,0,1,1.000,1.000,1.000,-90.00,180.00,0.00,OPEN,0
671281.476,0,0,1,1.000,1.000,1.000,-90.00,180.00,0.00,OPEN,0
671281.525,0,0,1,1.000,1.000,1.000,-90.00,180.00,0.00,OPEN,0
671281.578,0,0,1,1.000,1.000,1.000,-90.00,180.00,0.00,OPEN,0
671281.626,0,0,1,1.000,1.000,1.000,-90.00,180.00,0.00,OPEN,0
671281.675,0,0,1,1.000,1.000,1.000,-90.00,180.00,0.00,OPEN,0
671281.725,0,0,1,1.000,1.000,1.000,-90.00,180.00,0.00,OPEN,0
671281.775,0,0,1,1.000,1.000,1.000,-90.00,180.00,0.00,OPEN,0
671281.826,0,0,1,1.000,1.000,1.000,-90.00,180.00,0.00,OPEN,0
671281.875,0,0,1,1.000,1.000,1.000,-90.00,180.00,0.00,OPEN,0
671281.926,0,0,1,1.000,1.000,1.000,-90.00,180.00,0.00,OPEN,0
671281.976,0,0,1,1.000,1.000,1.000,-90.00,180.00,0.00,OPEN,0
671282.025,0,0,1,1.000,1.000,1.000,-90.00,180.00,0.00,OPEN,0
671282.076,0,0,1,1.000,1.000,1.000,-90.00,180.00,0.00,OPEN,0
671282.127,0,0,1,1.000,1.000,1.000,-90.00,180.00,0.00,OPEN,0
671282.175,0,0,1,1.000,1.000,1.000,-90.00,180.00,0.00,OPEN,0
671282.230,0,0,1,1.000,1.000,1.000,-90.00,180.00,0.00,OPEN,0
671282.276,0,0,1,1.000,1.000,1.000,-90.00,180.00,0.00,OPEN,0
671282.327,0,0,1,1.000,1.000,1.000,-90.00,180.00,0.00,OPEN,0
671282.375,0,0,1,1.000,1.000,1.000,-90.00,180.00,0.00,OPEN,0
671282.426,0,0,1,1.000,1.000,1.000,-90.00,180.00,0.00,OPEN,0
671282.475,0,0,1,1.000,1.000,1.000,-90.00,180.00,0.00,OPEN,0
671282.527,0,0,1,1.000,0.999,1.000,-90.00,180.00,0.00,OPEN,0
671282.575,0,0,1,1.000,0.995,1.000,-90.00,180.00,0.00,OPEN,0
671282.625,0,0,1,1.000,0.752,1.000,-90.00,180.00,0.00,OPEN,0
671282.675,0,0,1,1.000,1.000,1.000,-90.00,180.00,0.00,OPEN,0
671282.726,0,0,1,1.000,1.000,1.000,-90.00,180.00,0.00,OPEN,0
671282.784,0,0,1,0.998,1.000,1.000,-90.00,180.00,0.00,OPEN,0
671282.826,0,0,1,0.993,1.000,1.000,-90.00,180.00,0.00,OPEN,0
671282.875,0,0,1,0.993,1.000,1.000,-90.00,180.00,0.00,OPEN,0
671282.926,0,0,1,0.988,1.000,1.000,-90.00,180.00,0.00,OPEN,0
671282.977,0,0,1,0.978,1.000,1.000,-90.00,180.00,0.00,OPEN,0
671283.025,0,0,1,0.966,1.000,1.000,-90.00,180.00,0.00,OPEN,0
671283.076,0,0,1,0.957,1.000,1.000,-90.00,180.00,0.00,OPEN,0
671283.125,0,0,1,0.943,1.000,0.999,-90.00,180.00,0.00,OPEN,0
671283.176,0,0,1,0.899,1.000,0.996,-90.00,180.00,0.00,OPEN,0
671283.225,0,0,1,0.800,1.000,0.937,-90.00,180.00,0.00,OPEN,0
671283.275,0,0,1,0.792,1.000,0.895,-90.00,180.00,0.00,OPEN,0
671283.326,0,0,1,0.995,1.000,0.698,-90.00,180.00,0.00,OPEN,0
671283.375,0,0,1,1.000,1.000,0.554,-90.00,180.00,0.00,OPEN,0
671283.425,0,0,1,1.000,1.000,0.947,-90.00,180.00,0.00,OPEN,0
671283.475,0,0,1,1.000,1.000,0.993,-90.00,180.00,0.00,OPEN,0
671283.525,0,0,1,1.000,1.000,1.000,-90.00,180.00,0.00,OPEN,0
671283.577,0,1,1,1.000,1.000,1.000,-90.00,180.00,0.00,OPEN,0
671283.625,0,1,1,1.000,1.000,1.000,-90.00,180.00,0.00,OPEN,0
671283.675,0,1,1,1.000,1.000,1.000,-90.00,180.00,0.00,OPEN,0
671283.727,0,1,1,1.000,1.000,1.000,-90.00,180.00,0.00,OPEN,0
671283.776,0,1,1,1.000,0.999,1.000,-90.00,180.00,0.00,OPEN,0
671283.825,0,1,1,1.000,0.993,1.000,-90.00,180.00,0.00,OPEN,0
671283.876,0,1,1,1.000,0.939,1.000,-90.00,180.00,0.00,OPEN,0
671283.925,0,1,1,0.996,0.544,1.000,-90.00,180.00,0.00,OPEN,0
671283.975,0,1,1,0.997,0.868,1.000,-90.00,180.00,0.00,OPEN,0
671284.026,0,1,1,1.000,0.805,1.000,-90.00,180.00,0.00,OPEN,0
671284.075,0,1,1,1.000,0.776,1.000,-90.00,180.00,0.00,OPEN,0
671284.126,0,1,1,1.000,0.828,1.000,-90.00,180.00,0.00,OPEN,0
671284.175,0,1,1,1.000,0.966,1.000,-90.00,180.00,0.00,OPEN,0
671284.226,0,1,1,1.000,0.990,1.000,-90.00,180.00,0.00,OPEN,0
671284.275,0,1,1,1.000,0.997,1.000,-90.00,180.00,0.00,OPEN,0
671284.325,0,1,0,1.000,0.999,1.000,-90.00,180.00,0.00,OPEN,0
671284.377,0,1,0,1.000,1.000,1.000,-90.00,180.00,0.00,OPEN,0
671284.425,0,1,0,1.000,1.000,1.000,-90.00,180.00,0.00,OPEN,0
671284.476,0,1,0,1.000,1.000,1.000,-90.00,180.00,0.00,OPEN,0
671284.526,0,1,0,1.000,1.000,1.000,-90.00,180.00,0.00,OPEN,0
671284.575,0,1,0,1.000,1.000,1.000,-90.00,180.00,0.00,OPEN,0
671284.625,0,1,0,1.000,1.000,1.000,-90.00,180.00,0.00,OPEN,0
671284.675,0,1,0,1.000,1.000,1.000,-90.00,180.00,0.00,OPEN,0
671284.726,0,1,0,1.000,1.000,1.000,-90.00,180.00,0.00,OPEN,0
671284.776,0,1,0,1.000,1.000,1.000,-90.00,180.00,0.00,OPEN,0
671284.826,0,0,0,1.000,1.000,1.000,-90.00,180.00,0.00,OPEN,0
671284.886,0,0,0,1.000,1.000,1.000,-90.00,180.00,0.00,OPEN,0
671284.929,0,0,0,1.000,1.000,1.000,-90.00,180.00,0.00,OPEN,0
671284.976,0,0,0,1.000,1.000,1.000,-90.00,180.00,0.00,OPEN,0
671285.025,0,0,0,1.000,1.000,1.000,-90.00,180.00,0.00,OPEN,0
671285.077,0,0,0,1.000,1.000,1.000,-90.00,180.00,0.00,OPEN,0
671285.125,0,0,0,1.000,1.000,1.000,-90.00,180.00,0.00,OPEN,0
671285.175,0,0,0,1.000,1.000,1.000,-90.00,180.00,0.00,OPEN,0
671285.226,0,0,0,1.000,1.000,1.000,-90.00,180.00,0.00,OPEN,0
671285.275,0,0,0,1.000,1.000,1.000,-90.00,180.00,0.00,OPEN,0
671285.326,0,0,0,1.000,1.000,1.000,-90.00,180.00,0.00,OPEN,0
671285.375,0,0,0,1.000,1.000,1.000,-90.00,180.00,0.00,OPEN,0
671285.425,0,0,0,1.000,1.000,1.000,-90.00,180.00,0.00,OPEN,0
671285.475,0,0,0,1.000,1.000,1.000,-90.00,180.00,0.00,OPEN,0
671285.527,0,0,0,1.000,1.000,1.000,-90.00,180.00,0.00,OPEN,0
671285.575,0,0,0,1.000,1.000,1.000,-90.00,180.00,0.00,OPEN,0
671285.626,0,0,0,1.000,1.000,1.000,-90.00,180.00,0.00,OPEN,0
671285.675,0,0,0,1.000,1.000,1.000,-90.00,180.00,0.00,OPEN,0
671285.725,0,0,0,1.000,1.000,1.000,-90.00,180.00,0.00,OPEN,0
671285.775,0,0,0,1.000,1.000,1.000,-90.00,180.00,0.00,OPEN,0
671285.825,0,0,0,1.000,1.000,1.000,-90.00,180.00,0.00,OPEN,0
671285.876,0,0,0,1.000,1.000,1.000,-90.00,180.00,0.00,OPEN,0
671285.925,0,0,0,1.000,1.000,1.000,-90.00,180.00,0.00,OPEN,0
671285.975,0,0,0,1.000,1.000,1.000,-90.00,180.00,0.00,OPEN,0
671286.029,0,0,0,1.000,1.000,1.000,-90.00,180.00,0.00,OPEN,0
671286.076,0,0,0,1.000,1.000,1.000,-90.00,180.00,0.00,OPEN,0
671286.127,0,0,0,1.000,1.000,1.000,-90.00,180.00,0.00,OPEN,0
671286.175,0,0,0,1.000,1.000,1.000,-90.00,180.00,0.00,OPEN,0
671286.225,0,0,0,1.000,1.000,1.000,-90.00,180.00,0.00,OPEN,0
671286.276,0,0,0,1.000,1.000,1.000,-90.00,180.00,0.00,OPEN,0
671286.326,0,0,0,1.000,1.000,1.000,-90.00,180.00,0.00,OPEN,0
671286.376,0,0,0,1.000,1.000,1.000,-90.00,180.00,0.00,OPEN,0
671286.425,0,0,0,1.000,1.000,1.000,-90.00,180.00,0.00,OPEN,0
671286.477,0,0,0,1.000,1.000,1.000,-90.00,180.00,0.00,OPEN,0
671286.526,0,0,0,1.000,1.000,1.000,-90.00,180.00,0.00,OPEN,0
671286.575,0,0,0,1.000,1.000,1.000,-90.00,180.00,0.00,OPEN,0
671286.625,0,0,0,1.000,1.000,1.000,-90.00,180.00,0.00,OPEN,0
671286.675,0,0,0,1.000,1.000,1.000,-90.00,180.00,0.00,OPEN,0
671286.725,0,0,0,1.000,1.000,1.000,-90.00,180.00,0.00,OPEN,0
671286.775,0,0,0,1.000,1.000,1.000,-90.00,180.00,0.00,OPEN,0
671286.826,0,0,0,1.000,1.000,1.000,-90.00,180.00,0.00,OPEN,0
671286.877,0,0,0,1.000,1.000,1.000,-90.00,180.00,0.00,OPEN,0
671286.926,0,0,0,1.000,1.000,1.000,-90.00,180.00,0.00,OPEN,0
671286.976,0,0,0,1.000,1.000,1.000,-90.00,180.00,0.00,OPEN,0
671287.026,0,0,0,1.000,1.000,1.000,-90.00,180.00,0.00,OPEN,0
671287.076,0,0,0,1.000,1.000,1.000,-90.00,180.00,0.00,OPEN,0
671287.125,0,0,0,1.000,1.000,1.000,-90.00,180.00,0.00,OPEN,0
671287.175,0,0,0,1.000,1.000,1.000,-90.00,180.00,0.00,OPEN,0
671287.225,0,0,0,1.000,1.000,1.000,-90.00,180.00,0.00,OPEN,0
671287.275,0,0,0,1.000,1.000,1.000,-90.00,180.00,0.00,OPEN,0
671287.326,0,0,0,1.000,1.000,1.000,-90.00,180.00,0.00,OPEN,0
671287.376,0,0,0,1.000,1.000,1.000,-90.00,180.00,0.00,OPEN,0
671287.426,0,0,0,1.000,1.000,1.000,-90.00,180.00,0.00,OPEN,0
671287.477,0,0,0,1.000,1.000,1.000,-90.00,180.00,0.00,OPEN,0
671287.526,0,0,0,1.000,1.000,1.000,-90.00,180.00,0.00,OPEN,0
671287.576,0,0,0,1.000,1.000,1.000,-90.00,180.00,0.00,OPEN,0
671287.627,0,0,0,1.000,1.000,1.000,-90.00,180.00,0.00,OPEN,0
671287.676,0,0,0,1.000,1.000,1.000,-90.00,180.00,0.00,OPEN,0
671287.725,0,0,0,1.000,1.000,1.000,-90.00,180.00,0.00,OPEN,0
671287.788,0,0,0,1.000,1.000,1.000,-90.00,180.00,0.00,OPEN,0
671287.827,0,0,0,1.000,1.000,1.000,-90.00,180.00,0.00,OPEN,0
671287.875,0,0,0,1.000,1.000,1.000,-90.00,180.00,0.00,OPEN,0
671287.925,0,0,0,1.000,1.000,1.000,-90.00,180.00,0.00,OPEN,0
671287.975,0,0,0,1.000,1.000,1.000,-90.00,180.00,0.00,OPEN,0
671288.025,0,0,0,1.000,1.000,1.000,-90.00,180.00,0.00,OPEN,0
671288.075,0,0,0,1.000,1.000,1.000,-90.00,180.00,0.00,OPEN,0
671288.124,0,0,0,1.000,1.000,1.000,-90.00,180.00,0.00,OPEN,0
671288.175,0,0,0,1.000,1.000,1.000,-90.00,180.00,0.00,OPEN,0
671288.225,0,0,0,1.000,1.000,1.000,-90.00,180.00,0.00,OPEN,0
671288.277,0,0,0,1.000,1.000,1.000,-90.00,180.00,0.00,OPEN,0
671288.325,0,0,0,1.000,1.000,1.000,-90.00,180.00,0.00,OPEN,0
671288.378,0,0,0,1.000,1.000,1.000,-90.00,180.00,0.00,OPEN,0
671288.426,0,0,0,1.000,1.000,1.000,-90.00,180.00,0.00,OPEN,0
671288.476,0,0,0,1.000,1.000,1.000,-90.00,180.00,0.00,OPEN,0
671288.525,0,0,0,1.000,1.000,1.000,-90.00,180.00,0.00,OPEN,0
671288.575,0,0,0,1.000,1.000,1.000,-90.00,180.00,0.00,OPEN,0
671288.626,0,0,0,1.000,1.000,1.000,-90.00,180.00,0.00,OPEN,0
671288.675,0,0,0,1.000,1.000,1.000,-90.00,180.00,0.00,OPEN,0
671288.726,0,0,0,1.000,1.000,1.000,-90.00,180.00,0.00,OPEN,0
671288.776,0,0,0,1.000,1.000,1.000,-90.00,180.00,0.00,OPEN,0
671288.826,0,0,0,1.000,1.000,1.000,-90.00,180.00,0.00,OPEN,0
671288.876,0,0,0,1.000,1.000,1.000,-90.00,180.00,0.00,OPEN,0
671288.925,0,0,0,1.000,1.000,1.000,-90.00,180.00,0.00,OPEN,0
671288.975,0,0,0,1.000,1.000,1.000,-90.00,180.00,0.00,OPEN,0
671289.025,0,0,0,1.000,1.000,1.000,-90.00,180.00,0.00,OPEN,0
671289.076,0,0,0,1.000,1.000,1.000,-90.00,180.00,0.00,OPEN,0
671289.125,0,0,0,1.000,1.000,1.000,-90.00,180.00,0.00,OPEN,0
671289.176,0,0,0,1.000,1.000,1.000,-90.00,180.00,0.00,OPEN,0
671289.226,0,0,0,1.000,1.000,1.000,-90.00,180.00,0.00,OPEN,0
671289.275,0,0,0,1.000,1.000,1.000,-90.00,180.00,0.00,OPEN,0
671289.325,0,0,0,1.000,1.000,1.000,-90.00,180.00,0.00,OPEN,0
671289.375,0,0,0,1.000,1.000,1.000,-90.00,180.00,0.00,OPEN,0
671289.425,0,0,0,1.000,1.000,1.000,-90.00,180.00,0.00,OPEN,0
671289.475,0,0,0,1.000,1.000,1.000,-90.00,180.00,0.00,OPEN,0
671289.525,0,0,0,1.000,1.000,1.000,-90.00,180.00,0.00,OPEN,0
671289.576,0,0,0,1.000,1.000,1.000,-90.00,180.00,0.00,OPEN,0
671289.625,0,0,0,1.000,1.000,1.000,-90.00,180.00,0.00,OPEN,0
671289.676,0,0,0,1.000,1.000,1.000,-90.00,180.00,0.00,OPEN,0
671289.725,0,0,0,1.000,1.000,1.000,-90.00,180.00,0.00,OPEN,0
671289.775,0,0,0,1.000,1.000,1.000,-90.00,180.00,0.00,OPEN,0
671289.825,0,0,0,1.000,1.000,1.000,-90.00,180.00,0.00,OPEN,0
671289.875,0,0,0,1.000,1.000,1.000,-90.00,180.00,0.00,OPEN,0
671289.925,0,0,0,1.000,1.000,1.000,-90.00,180.00,0.00,OPEN,0
671289.975,0,0,0,1.000,1.000,1.000,-90.00,180.00,0.00,OPEN,0
671290.026,0,0,0,1.000,1.000,1.000,-90.00,180.00,0.00,OPEN,0
671290.076,0,0,0,1.000,1.000,1.000,-90.00,180.00,0.00,OPEN,0
671290.125,0,0,0,1.000,1.000,1.000,-90.00,180.00,0.00,OPEN,0
671290.175,0,0,0,0.999,1.000,1.000,-90.00,180.00,0.00,OPEN,0
671290.227,0,0,0,1.000,1.000,1.000,-90.00,180.00,0.00,OPEN,0
671290.275,0,0,0,0.999,0.985,1.000,-90.00,180.00,0.00,OPEN,0
671290.326,0,0,0,1.000,0.997,0.988,-90.00,180.00,0.00,OPEN,0
671290.375,0,0,0,0.997,1.000,0.522,-90.00,180.00,0.00,OPEN,0
671290.425,0,0,0,0.988,1.000,0.916,-90.00,180.00,0.00,OPEN,0
671290.475,0,0,0,0.988,1.000,0.968,-90.00,180.00,0.00,OPEN,0
671290.526,0,0,0,0.984,1.000,0.974,-90.00,180.00,0.00,OPEN,0
671290.575,0,0,0,0.990,1.000,0.974,-90.00,180.00,0.00,OPEN,0
671290.626,0,0,0,0.993,1.000,0.976,-90.00,180.00,0.00,OPEN,0
671290.675,0,0,0,0.994,1.000,0.962,-90.00,180.00,0.00,OPEN,0
671290.736,0,0,0,0.996,1.000,0.967,-90.00,180.00,0.00,OPEN,0
671290.776,0,0,0,1.000,1.000,0.968,-90.00,180.00,0.00,OPEN,0
671290.826,0,0,0,1.000,1.000,0.942,-90.00,180.00,0.00,OPEN,0
671290.875,0,0,0,1.000,1.000,0.924,-90.00,180.00,0.00,OPEN,0
671290.926,0,0,0,1.000,1.000,0.954,-90.00,180.00,0.00,OPEN,0
671290.976,0,0,0,1.000,1.000,0.982,-90.00,180.00,0.00,OPEN,0
671291.025,0,0,0,1.000,1.000,0.996,-90.00,180.00,0.00,OPEN,0
671291.076,0,0,0,1.000,1.000,1.000,-90.00,180.00,0.00,OPEN,0
671291.125,0,0,0,1.000,1.000,1.000,-90.00,180.00,0.00,OPEN,0
671291.175,0,1,0,1.000,1.000,1.000,-90.00,180.00,0.00,OPEN,0
671291.226,0,1,0,1.000,1.000,1.000,-90.00,180.00,0.00,OPEN,0
671291.276,0,1,0,1.000,1.000,1.000,-90.00,180.00,0.00,OPEN,0
671291.328,0,1,1,1.000,1.000,1.000,-90.00,180.00,0.00,OPEN,0
671291.375,0,1,1,1.000,1.000,1.000,-90.00,180.00,0.00,OPEN,0
671291.425,0,1,1,1.000,0.999,1.000,-90.00,180.00,0.00,OPEN,0
671291.475,0,1,1,1.000,0.991,1.000,-90.00,180.00,0.00,OPEN,0
671291.525,0,1,1,1.000,0.974,1.000,-90.00,180.00,0.00,OPEN,0
671291.575,0,1,1,1.000,0.942,1.000,-90.00,180.00,0.00,OPEN,0
671291.625,0,1,1,1.000,0.925,1.000,-90.00,180.00,0.00,OPEN,0
671291.675,0,1,1,1.000,0.880,1.000,-90.00,180.00,0.00,OPEN,0
671291.725,0,1,1,1.000,0.821,1.000,-90.00,180.00,0.00,OPEN,0
671291.775,0,1,1,1.000,0.805,1.000,-90.00,180.00,0.00,OPEN,0
671291.825,0,1,1,0.999,0.958,1.000,-90.00,180.00,0.00,OPEN,0
671291.875,0,1,1,0.999,0.995,1.000,-90.00,180.00,0.00,OPEN,0
671291.925,0,1,1,0.999,0.999,1.000,-90.00,180.00,0.00,OPEN,0
671291.975,0,1,1,0.998,1.000,1.000,-90.00,180.00,0.00,OPEN,0
671292.026,0,1,1,1.000,1.000,1.000,-90.00,180.00,0.00,OPEN,0
671292.075,0,1,1,1.000,1.000,1.000,-90.00,180.00,0.00,OPEN,0
671292.125,0,1,1,1.000,1.000,1.000,-90.00,180.00,0.00,OPEN,0
671292.176,0,1,1,1.000,1.000,1.000,-90.00,180.00,0.00,OPEN,0
671292.225,0,1,1,1.000,1.000,1.000,-90.00,180.00,0.00,OPEN,0
671292.276,0,1,1,1.000,1.000,1.000,-90.00,180.00,0.00,OPEN,0
671292.325,0,1,1,1.000,1.000,1.000,-90.00,180.00,0.00,OPEN,0
671292.377,0,1,1,1.000,1.000,1.000,-90.00,180.00,0.00,OPEN,0
671292.425,0,1,1,1.000,1.000,1.000,-90.00,180.00,0.00,OPEN,0
671292.475,0,1,1,1.000,1.000,1.000,-90.00,180.00,0.00,OPEN,0
671292.526,0,1,1,1.000,1.000,1.000,-90.00,180.00,0.00,OPEN,0
671292.575,0,1,1,1.000,1.000,1.000,-90.00,180.00,0.00,OPEN,0
671292.626,0,1,1,1.000,1.000,1.000,-90.00,180.00,0.00,OPEN,0
671292.675,0,1,1,1.000,1.000,1.000,-90.00,180.00,0.00,OPEN,0
671292.727,0,1,1,1.000,1.000,1.000,-90.00,180.00,0.00,OPEN,0
671292.775,0,1,1,1.000,1.000,1.000,-90.00,180.00,0.00,OPEN,0
671292.826,0,1,1,1.000,1.000,1.000,-90.00,180.00,0.00,OPEN,0
671292.875,0,1,1,1.000,1.000,1.000,-90.00,180.00,0.00,OPEN,0
671292.925,0,1,1,1.000,1.000,1.000,-90.00,180.00,0.00,OPEN,0
671292.975,0,1,1,1.000,1.000,1.000,-90.00,180.00,0.00,OPEN,0
671293.027,0,1,1,1.000,1.000,1.000,-90.00,180.00,0.00,OPEN,0
671293.075,0,1,1,1.000,1.000,1.000,-90.00,180.00,0.00,OPEN,0
671293.127,0,1,1,1.000,1.000,1.000,-90.00,180.00,0.00,OPEN,0
671293.175,0,1,1,1.000,1.000,1.000,-90.00,180.00,0.00,OPEN,0
671293.225,0,1,1,1.000,1.000,1.000,-90.00,180.00,0.00,OPEN,0
671293.275,0,1,1,1.000,1.000,1.000,-90.00,180.00,0.00,OPEN,0
671293.325,0,1,1,1.000,1.000,1.000,-90.00,180.00,0.00,OPEN,0
671293.375,0,1,1,1.000,1.000,1.000,-90.00,180.00,0.00,OPEN,0
671293.425,0,1,1,1.000,1.000,1.000,-90.00,180.00,0.00,OPEN,0
671293.475,0,1,1,1.000,1.000,1.000,-90.00,180.00,0.00,OPEN,0
671293.525,0,1,1,1.000,1.000,1.000,-90.00,180.00,0.00,OPEN,0
671293.575,0,1,1,1.000,1.000,1.000,-90.00,180.00,0.00,OPEN,0
671293.625,0,1,1,1.000,1.000,1.000,-90.00,180.00,0.00,OPEN,0
671293.676,0,1,1,1.000,1.000,1.000,-90.00,180.00,0.00,OPEN,0
671293.726,0,1,1,1.000,1.000,1.000,-90.00,180.00,0.00,OPEN,0
671293.775,0,1,1,1.000,1.000,1.000,-90.00,180.00,0.00,OPEN,0
671293.826,0,1,1,1.000,1.000,1.000,-90.00,180.00,0.00,OPEN,0
671293.875,0,1,1,1.000,1.000,1.000,-90.00,180.00,0.00,OPEN,0
671293.925,0,1,1,1.000,1.000,1.000,-90.00,180.00,0.00,OPEN,0
671293.975,0,1,1,1.000,1.000,1.000,-90.00,180.00,0.00,OPEN,0
671294.026,0,1,1,1.000,1.000,1.000,-90.00,180.00,0.00,OPEN,0
671294.075,0,1,1,1.000,1.000,1.000,-90.00,180.00,0.00,OPEN,0
671294.125,0,1,1,1.000,1.000,1.000,-90.00,180.00,0.00,OPEN,0
671294.175,0,1,1,1.000,1.000,1.000,-90.00,180.00,0.00,OPEN,0
671294.226,0,1,1,1.000,1.000,1.000,-90.00,180.00,0.00,OPEN,0
671294.275,0,1,1,1.000,1.000,1.000,-90.00,180.00,0.00,OPEN,0
671294.325,0,1,1,1.000,1.000,1.000,-90.00,180.00,0.00,OPEN,0
671294.376,0,1,1,1.000,1.000,1.000,-90.00,180.00,0.00,OPEN,0
671294.425,0,1,1,1.000,1.000,1.000,-90.00,180.00,0.00,OPEN,0
671294.477,0,1,1,1.000,1.000,1.000,-90.00,180.00,0.00,OPEN,0
671294.525,0,1,1,1.000,1.000,1.000,-90.00,180.00,0.00,OPEN,0
671294.575,0,1,1,1.000,1.000,1.000,-90.00,180.00,0.00,OPEN,0
671294.625,0,1,1,1.000,1.000,1.000,-90.00,180.00,0.00,OPEN,0
671294.675,0,1,1,1.000,1.000,1.000,-90.00,180.00,0.00,OPEN,0
671294.725,0,1,1,1.000,1.000,1.000,-90.00,180.00,0.00,OPEN,0
671294.775,0,1,1,1.000,1.000,1.000,-90.00,180.00,0.00,OPEN,0
671294.825,0,1,1,1.000,1.000,1.000,-90.00,180.00,0.00,OPEN,0
671294.875,0,1,1,1.000,1.000,1.000,-90.00,180.00,0.00,OPEN,0
671294.925,0,1,1,1.000,1.000,1.000,-90.00,180.00,0.00,OPEN,0
671294.977,0,1,1,1.000,1.000,1.000,-90.00,180.00,0.00,OPEN,0
671295.026,0,1,1,1.000,1.000,1.000,-90.00,180.00,0.00,OPEN,0
671295.075,0,1,1,1.000,1.000,1.000,-90.00,180.00,0.00,OPEN,0
671295.129,0,1,1,1.000,1.000,1.000,-90.00,180.00,0.00,OPEN,0
671295.176,0,1,1,1.000,1.000,1.000,-90.00,180.00,0.00,OPEN,0
671295.225,0,1,1,1.000,1.000,1.000,-90.00,180.00,0.00,OPEN,0
671295.276,0,1,1,1.000,1.000,1.000,-90.00,180.00,0.00,OPEN,0
671295.325,0,1,1,1.000,1.000,1.000,-90.00,180.00,0.00,OPEN,0
671295.375,0,1,1,1.000,1.000,1.000,-90.00,180.00,0.00,OPEN,0
671295.428,0,1,1,1.000,1.000,1.000,-90.00,180.00,0.00,OPEN,0
671295.475,0,1,1,1.000,1.000,1.000,-90.00,180.00,0.00,OPEN,0
671295.525,0,1,1,1.000,1.000,1.000,-90.00,180.00,0.00,OPEN,0
671295.576,0,1,1,1.000,1.000,1.000,-90.00,180.00,0.00,OPEN,0
671295.626,0,1,1,1.000,1.000,1.000,-90.00,180.00,0.00,OPEN,0
671295.675,0,1,1,1.000,1.000,1.000,-90.00,180.00,0.00,OPEN,0
671295.731,0,1,1,1.000,1.000,1.000,-90.00,180.00,0.00,OPEN,0
671295.776,0,1,1,1.000,1.000,1.000,-90.00,180.00,0.00,OPEN,0
671295.825,0,1,1,1.000,1.000,1.000,-90.00,180.00,0.00,OPEN,0
671295.877,0,1,1,1.000,1.000,1.000,-90.00,180.00,0.00,OPEN,0
671295.925,0,1,1,1.000,1.000,1.000,-90.00,180.00,0.00,OPEN,0
671295.979,0,1,1,1.000,1.000,1.000,-90.00,180.00,0.00,OPEN,0
671296.025,0,1,1,1.000,1.000,1.000,-90.00,180.00,0.00,OPEN,0
671296.075,0,1,1,1.000,1.000,1.000,-90.00,180.00,0.00,OPEN,0
671296.128,0,1,1,1.000,1.000,1.000,-90.00,180.00,0.00,OPEN,0
671296.175,0,1,1,1.000,1.000,1.000,-90.00,180.00,0.00,OPEN,0
671296.225,0,1,1,1.000,1.000,1.000,-90.00,180.00,0.00,OPEN,0
671296.275,0,1,1,1.000,1.000,1.000,-90.00,180.00,0.00,OPEN,0
671296.325,0,1,1,1.000,1.000,1.000,-90.00,180.00,0.00,OPEN,0
671296.375,0,1,1,1.000,1.000,1.000,-90.00,180.00,0.00,OPEN,0
671296.425,0,1,1,1.000,1.000,1.000,-90.00,180.00,0.00,OPEN,0
671296.475,0,1,1,1.000,1.000,1.000,-90.00,180.00,0.00,OPEN,0
671296.525,0,1,1,1.000,1.000,1.000,-90.00,180.00,0.00,OPEN,0
671296.576,0,1,1,1.000,1.000,1.000,-90.00,180.00,0.00,OPEN,0
671296.626,0,1,1,1.000,1.000,1.000,-90.00,180.00,0.00,OPEN,0
671296.675,0,1,1,1.000,0.999,1.000,-90.00,180.00,0.00,OPEN,0
671296.725,0,1,1,1.000,0.995,1.000,-90.00,180.00,0.00,OPEN,0
671296.775,0,1,1,1.000,0.975,1.000,-90.00,180.00,0.00,OPEN,0
671296.825,0,1,1,1.000,0.857,0.999,-90.00,180.00,0.00,OPEN,0
671296.876,0,1,1,1.000,0.741,0.998,-90.00,180.00,0.00,OPEN,0
671296.925,0,1,1,1.000,0.639,0.992,-90.00,180.00,0.00,OPEN,0
671296.975,0,1,1,0.999,0.914,0.968,-90.00,180.00,0.00,OPEN,0
671297.025,0,1,1,0.999,0.976,0.877,-90.00,180.00,0.00,OPEN,0
671297.075,0,1,1,0.999,0.990,0.686,-90.00,180.00,0.00,OPEN,0
671297.125,0,1,1,0.998,0.996,0.554,-90.00,180.00,0.00,OPEN,0
671297.175,0,1,1,0.999,0.992,0.619,-90.00,180.00,0.00,OPEN,0
671297.227,0,1,1,0.999,0.995,0.804,-90.00,180.00,0.00,OPEN,0
671297.275,0,1,1,0.999,1.000,0.941,-90.00,180.00,0.00,OPEN,0
671297.327,0,1,1,1.000,1.000,0.996,-90.00,180.00,0.00,OPEN,0
671297.375,0,1,1,1.000,1.000,0.996,-90.00,180.00,0.00,OPEN,0
671297.426,0,1,1,1.000,1.000,0.999,-90.00,180.00,0.00,OPEN,0
671297.476,0,1,1,1.000,1.000,0.999,-90.00,180.00,0.00,OPEN,0
671297.527,0,1,1,1.000,1.000,0.998,-90.00,180.00,0.00,OPEN,0
671297.575,0,1,1,1.000,1.000,0.998,-90.00,180.00,0.00,OPEN,0
671297.625,0,1,1,1.000,1.000,0.995,-90.00,180.00,0.00,OPEN,0
671297.675,0,1,1,1.000,1.000,0.988,-90.00,180.00,0.00,OPEN,0
671297.725,0,1,1,1.000,1.000,0.554,-90.00,180.00,0.00,OPEN,0
671297.777,0,1,1,1.000,0.998,0.952,-90.00,180.00,0.00,OPEN,0
671297.825,0,1,1,1.000,0.994,0.942,-90.00,180.00,0.00,OPEN,0
671297.876,0,0,1,1.000,0.986,0.952,-90.00,180.00,0.00,OPEN,0
671297.925,0,0,1,1.000,0.926,0.977,-90.00,180.00,0.00,OPEN,0
671297.974,0,0,1,1.000,0.668,0.982,-90.00,180.00,0.00,OPEN,0
671298.025,0,0,1,1.000,0.990,0.994,-90.00,180.00,0.00,OPEN,0
671298.075,0,0,0,1.000,1.000,0.994,-90.00,180.00,0.00,OPEN,0
671298.126,0,0,0,1.000,1.000,0.995,-90.00,180.00,0.00,OPEN,0
671298.175,0,0,0,1.000,1.000,0.979,-90.00,180.00,0.00,OPEN,0
671298.225,0,0,0,1.000,1.000,0.965,-90.00,180.00,0.00,OPEN,0
671298.277,0,0,0,1.000,1.000,0.951,-90.00,180.00,0.00,OPEN,0
671298.326,0,0,0,1.000,0.998,0.823,-90.00,180.00,0.00,OPEN,0
671298.377,0,0,0,1.000,0.991,0.642,-90.00,180.00,0.00,OPEN,0
671298.425,0,0,0,1.000,0.915,0.775,-90.00,180.00,0.00,OPEN,0
671298.475,0,0,0,1.000,0.762,0.873,-90.00,180.00,0.00,OPEN,0
671298.527,0,0,0,1.000,0.502,0.918,-90.00,180.00,0.00,OPEN,0
671298.576,0,0,0,1.000,0.719,0.947,-90.00,180.00,0.00,OPEN,0
671298.625,0,0,0,1.000,0.862,0.970,-90.00,180.00,0.00,OPEN,0
671298.675,0,0,1,1.000,0.974,0.993,-90.00,180.00,0.00,OPEN,0
671298.726,0,0,1,1.000,0.996,0.998,-90.00,180.00,0.00,OPEN,0
671298.775,0,0,1,1.000,0.999,0.999,-90.00,180.00,0.00,OPEN,0
671298.825,0,0,1,1.000,1.000,1.000,-90.00,180.00,0.00,OPEN,0
671298.875,0,0,1,1.000,1.000,1.000,-90.00,180.00,0.00,OPEN,0
671298.929,0,0,1,1.000,1.000,1.000,-90.00,180.00,0.00,OPEN,0
671298.982,0,0,1,1.000,1.000,1.000,-90.00,180.00,0.00,OPEN,0
671299.026,0,0,1,1.000,1.000,1.000,-90.00,180.00,0.00,OPEN,0
671299.077,0,0,1,1.000,1.000,1.000,-90.00,180.00,0.00,OPEN,0
671299.125,0,0,1,1.000,1.000,1.000,-90.00,180.00,0.00,OPEN,0
671299.176,0,0,1,1.000,1.000,1.000,-90.00,180.00,0.00,OPEN,0
671299.225,0,0,1,1.000,1.000,1.000,-90.00,180.00,0.00,OPEN,0
671299.276,0,0,0,1.000,1.000,1.000,-90.00,180.00,0.00,OPEN,0
671299.327,0,0,0,1.000,1.000,1.000,-90.00,180.00,0.00,OPEN,0
671299.376,0,0,0,1.000,1.000,1.000,-90.00,180.00,0.00,OPEN,0
671299.425,0,0,0,1.000,1.000,1.000,-90.00,180.00,0.00,OPEN,0
671299.475,0,0,0,1.000,1.000,1.000,-90.00,180.00,0.00,OPEN,0
671299.525,0,0,0,1.000,1.000,1.000,-90.00,180.00,0.00,OPEN,0
671299.577,0,0,0,1.000,1.000,1.000,-90.00,180.00,0.00,OPEN,0
671299.626,0,0,0,1.000,1.000,1.000,-90.00,180.00,0.00,OPEN,0
671299.675,0,0,0,1.000,1.000,1.000,-90.00,180.00,0.00,OPEN,0
671299.725,0,0,0,1.000,1.000,1.000,-90.00,180.00,0.00,OPEN,0
671299.775,0,0,0,1.000,1.000,1.000,-90.00,180.00,0.00,OPEN,0
671299.826,0,0,0,1.000,1.000,1.000,-90.00,180.00,0.00,OPEN,0
671299.875,0,0,0,1.000,1.000,1.000,-90.00,180.00,0.00,OPEN,0
671299.928,0,0,0,1.000,1.000,1.000,-90.00,180.00,0.00,OPEN,0
671299.975,0,0,0,1.000,1.000,1.000,-90.00,180.00,0.00,OPEN,0
671300.026,0,0,0,1.000,1.000,1.000,-90.00,180.00,0.00,OPEN,0
671300.076,0,0,0,1.000,1.000,1.000,-90.00,180.00,0.00,OPEN,0
671300.125,0,0,0,1.000,1.000,1.000,-90.00,180.00,0.00,OPEN,0
671300.176,0,0,0,1.000,1.000,1.000,-90.00,180.00,0.00,OPEN,0
671300.225,0,0,0,1.000,1.000,1.000,-90.00,180.00,0.00,OPEN,0
671300.275,0,0,0,1.000,1.000,1.000,-90.00,180.00,0.00,OPEN,0
671300.325,0,0,0,1.000,1.000,1.000,-90.00,180.00,0.00,OPEN,0
671300.376,0,0,0,1.000,1.000,1.000,-90.00,180.00,0.00,OPEN,0
671300.425,0,0,0,1.000,1.000,1.000,-90.00,180.00,0.00,OPEN,0
671300.478,0,0,0,1.000,1.000,1.000,-90.00,180.00,0.00,OPEN,0
671300.526,0,0,0,1.000,1.000,1.000,-90.00,180.00,0.00,OPEN,0
671300.576,0,0,0,1.000,1.000,1.000,-90.00,180.00,0.00,OPEN,0
671300.625,0,0,0,1.000,1.000,1.000,-90.00,180.00,0.00,OPEN,0
671300.678,0,0,0,1.000,1.000,1.000,-90.00,180.00,0.00,OPEN,0
671300.726,0,0,0,1.000,1.000,1.000,-90.00,180.00,0.00,OPEN,0
671300.775,0,0,0,1.000,1.000,1.000,-90.00,180.00,0.00,OPEN,0
671300.825,0,0,0,1.000,1.000,1.000,-90.00,180.00,0.00,OPEN,0
671300.875,0,0,0,1.000,1.000,1.000,-90.00,180.00,0.00,OPEN,0
671300.927,0,0,0,1.000,1.000,1.000,-90.00,180.00,0.00,OPEN,0
671300.975,0,0,0,1.000,1.000,1.000,-90.00,180.00,0.00,OPEN,0
671301.025,0,0,0,1.000,1.000,1.000,-90.00,180.00,0.00,OPEN,0
671301.076,0,0,0,1.000,1.000,1.000,-90.00,180.00,0.00,OPEN,0
671301.125,0,0,0,1.000,1.000,1.000,-90.00,180.00,0.00,OPEN,0
671301.175,0,0,0,1.000,1.000,1.000,-90.00,180.00,0.00,OPEN,0
671301.226,0,0,0,1.000,1.000,1.000,-90.00,180.00,0.00,OPEN,0
671301.275,0,0,0,1.000,1.000,1.000,-90.00,180.00,0.00,OPEN,0
671301.326,0,0,0,1.000,1.000,1.000,-90.00,180.00,0.00,OPEN,0
671301.375,0,0,0,1.000,1.000,1.000,-90.00,180.00,0.00,OPEN,0
671301.425,0,0,0,1.000,1.000,1.000,-90.00,180.00,0.00,OPEN,0
671301.475,0,0,0,1.000,1.000,1.000,-90.00,180.00,0.00,OPEN,0
671301.525,0,0,0,1.000,1.000,1.000,-90.00,180.00,0.00,OPEN,0
671301.576,0,0,0,1.000,1.000,1.000,-90.00,180.00,0.00,OPEN,0
671301.625,0,0,0,1.000,1.000,1.000,-90.00,180.00,0.00,OPEN,0
671301.675,0,0,0,1.000,1.000,1.000,-90.00,180.00,0.00,OPEN,0
671301.726,0,0,0,1.000,1.000,1.000,-90.00,180.00,0.00,OPEN,0
671301.777,0,0,0,1.000,1.000,1.000,-90.00,180.00,0.00,OPEN,0
671301.825,0,0,0,1.000,1.000,1.000,-90.00,180.00,0.00,OPEN,0
671301.875,0,0,0,1.000,1.000,1.000,-90.00,180.00,0.00,OPEN,0
671301.926,0,0,0,1.000,1.000,1.000,-90.00,180.00,0.00,OPEN,0
671301.977,0,0,0,1.000,1.000,1.000,-90.00,180.00,0.00,OPEN,0
671302.025,0,0,0,1.000,1.000,1.000,-90.00,180.00,0.00,OPEN,0
671302.076,0,0,0,1.000,1.000,1.000,-90.00,180.00,0.00,OPEN,0
671302.125,0,0,0,1.000,1.000,1.000,-90.00,180.00,0.00,OPEN,0
671302.176,0,0,0,1.000,1.000,1.000,-90.00,180.00,0.00,OPEN,0
671302.226,0,0,0,1.000,1.000,1.000,-90.00,180.00,0.00,OPEN,0
671302.275,0,0,0,1.000,1.000,1.000,-90.00,180.00,0.00,OPEN,0
671302.325,0,0,0,1.000,1.000,1.000,-90.00,180.00,0.00,OPEN,0
671302.375,0,0,0,1.000,1.000,1.000,-90.00,180.00,0.00,OPEN,0
671302.425,0,0,0,1.000,1.000,1.000,-90.00,180.00,0.00,OPEN,0
671302.475,0,0,0,1.000,1.000,1.000,-90.00,180.00,0.00,OPEN,0
671302.525,0,0,0,1.000,1.000,1.000,-90.00,180.00,0.00,OPEN,0
671302.575,0,0,0,1.000,1.000,1.000,-90.00,180.00,0.00,OPEN,0
671302.625,0,0,0,1.000,1.000,1.000,-90.00,180.00,0.00,OPEN,0
671302.675,0,0,0,1.000,1.000,1.000,-90.00,180.00,0.00,OPEN,0
671302.725,0,0,0,1.000,1.000,1.000,-90.00,180.00,0.00,OPEN,0
671302.775,0,0,0,1.000,1.000,1.000,-90.00,180.00,0.00,OPEN,0
671302.825,0,0,0,1.000,1.000,1.000,-90.00,180.00,0.00,OPEN,0
671302.875,0,0,0,1.000,1.000,1.000,-90.00,180.00,0.00,OPEN,0
671302.926,0,0,0,1.000,1.000,1.000,-90.00,180.00,0.00,OPEN,0
671302.976,0,0,0,1.000,1.000,1.000,-90.00,180.00,0.00,OPEN,0
671303.025,0,0,0,1.000,1.000,1.000,-90.00,180.00,0.00,OPEN,0
671303.079,0,0,0,1.000,1.000,1.000,-90.00,180.00,0.00,OPEN,0
671303.125,0,0,0,1.000,1.000,1.000,-90.00,180.00,0.00,OPEN,0
671303.175,0,0,0,1.000,1.000,1.000,-90.00,180.00,0.00,OPEN,0
671303.225,0,0,0,1.000,1.000,1.000,-90.00,180.00,0.00,OPEN,0
671303.275,0,0,0,1.000,1.000,1.000,-90.00,180.00,0.00,OPEN,0
671303.326,0,0,0,1.000,1.000,1.000,-90.00,180.00,0.00,OPEN,0
671303.375,0,0,0,1.000,1.000,1.000,-90.00,180.00,0.00,OPEN,0
671303.425,0,0,0,1.000,1.000,1.000,-90.00,180.00,0.00,OPEN,0
671303.475,0,0,0,1.000,1.000,1.000,-90.00,180.00,0.00,OPEN,0
671303.525,0,0,0,1.000,1.000,1.000,-90.00,180.00,0.00,OPEN,0
671303.576,0,0,0,0.990,1.000,1.000,-90.00,180.00,0.00,OPEN,0
671303.625,0,0,0,0.988,1.000,1.000,-90.00,180.00,0.00,OPEN,0
671303.675,0,0,0,0.564,1.000,1.000,-90.00,180.00,0.00,OPEN,0
671303.725,0,0,0,0.740,1.000,1.000,-90.00,180.00,0.00,OPEN,0
671303.775,0,0,0,0.765,1.000,1.000,-90.00,180.00,0.00,OPEN,0
671303.825,0,0,0,0.770,1.000,1.000,-90.00,180.00,0.00,OPEN,0
671303.876,0,0,0,0.847,1.000,1.000,-90.00,180.00,0.00,OPEN,0
671303.925,0,0,0,0.610,1.000,1.000,-90.00,180.00,0.00,OPEN,0
671303.975,0,0,0,0.876,1.000,1.000,-90.00,180.00,0.00,OPEN,0
671304.025,0,0,0,0.973,1.000,1.000,-90.00,180.00,0.00,OPEN,0
671304.076,0,0,0,0.999,1.000,1.000,-90.00,180.00,0.00,OPEN,0
671304.126,3,0,0,1.000,1.000,1.000,-90.00,180.00,0.00,OPEN,0
671304.175,3,0,0,1.000,1.000,1.000,-90.00,180.00,0.00,OPEN,0
671304.225,3,0,0,1.000,1.000,1.000,-90.00,180.00,0.00,OPEN,0
671304.276,3,0,0,1.000,1.000,1.000,-90.00,180.00,0.00,OPEN,0
671304.325,3,0,0,1.000,1.000,1.000,-90.00,180.00,0.00,OPEN,0
671304.375,3,0,0,1.000,1.000,1.000,-90.00,180.00,0.00,OPEN,0
671304.426,3,0,0,1.000,0.993,1.000,-90.00,180.00,0.00,OPEN,0
671304.475,3,0,0,1.000,1.000,1.000,-90.00,180.00,0.00,OPEN,0
671304.526,3,0,0,1.000,1.000,1.000,-90.00,180.00,0.00,OPEN,0
671304.575,3,0,0,1.000,1.000,1.000,-90.00,180.00,0.00,OPEN,0
671304.626,3,0,0,1.000,1.000,1.000,-90.00,180.00,0.00,OPEN,0
671304.675,3,0,0,1.000,1.000,1.000,-90.00,180.00,0.00,OPEN,0
671304.725,3,0,0,1.000,1.000,1.000,-90.00,180.00,0.00,OPEN,0
671304.775,3,0,0,1.000,1.000,1.000,-90.00,180.00,0.00,OPEN,0
671304.825,3,0,0,1.000,1.000,1.000,-90.00,180.00,0.00,OPEN,0
671304.876,3,0,0,1.000,1.000,1.000,-90.00,180.00,0.00,OPEN,0
671304.925,3,0,0,1.000,1.000,1.000,-90.00,180.00,0.00,OPEN,0
671304.981,3,0,0,1.000,1.000,1.000,-90.00,180.00,0.00,OPEN,0
671305.025,3,0,0,1.000,1.000,1.000,-90.00,180.00,0.00,OPEN,0
671305.075,3,0,0,1.000,1.000,1.000,-90.00,180.00,0.00,OPEN,0
671305.125,3,0,0,1.000,1.000,1.000,-90.00,180.00,0.00,OPEN,0
671305.175,3,0,0,1.000,1.000,1.000,-90.00,180.00,0.00,OPEN,0
671305.225,3,0,0,1.000,1.000,1.000,-90.00,180.00,0.00,OPEN,0
671305.275,3,0,0,1.000,1.000,1.000,-90.00,180.00,0.00,OPEN,0
671305.325,3,1,0,1.000,1.000,1.000,-90.00,180.00,0.00,OPEN,0
671305.375,3,1,0,1.000,1.000,1.000,-90.00,180.00,0.00,OPEN,0
671305.425,3,1,0,1.000,1.000,1.000,-90.00,180.00,0.00,OPEN,0
671305.475,3,1,0,1.000,1.000,1.000,-90.00,180.00,0.00,OPEN,0
671305.525,3,1,0,1.000,1.000,1.000,-90.00,180.00,0.00,OPEN,0
671305.576,3,1,0,1.000,1.000,1.000,-90.00,180.00,0.00,OPEN,0
671305.625,3,1,0,1.000,1.000,1.000,-90.00,180.00,0.00,OPEN,0
671305.675,3,1,0,1.000,1.000,1.000,-90.00,180.00,0.00,OPEN,0
671305.725,3,1,0,1.000,1.000,1.000,-90.00,180.00,0.00,OPEN,0
671305.775,3,1,0,1.000,1.000,1.000,-90.00,180.00,0.00,OPEN,0
671305.825,3,1,0,1.000,1.000,1.000,-90.00,180.00,0.00,OPEN,0
671305.877,3,1,0,1.000,1.000,1.000,-90.00,180.00,0.00,OPEN,0
671305.925,3,1,0,1.000,1.000,1.000,-90.00,180.00,0.00,OPEN,0
671305.976,3,1,0,1.000,1.000,1.000,-90.00,180.00,0.00,OPEN,0
671306.026,3,1,0,1.000,1.000,1.000,-90.00,180.00,0.00,OPEN,0
671306.076,3,1,0,1.000,1.000,1.000,-90.00,180.00,0.00,OPEN,0
671306.125,3,1,0,1.000,1.000,1.000,-90.00,180.00,0.00,OPEN,0
671306.175,3,1,0,1.000,1.000,1.000,-90.00,180.00,0.00,OPEN,0
671306.226,3,1,0,1.000,1.000,1.000,-90.00,180.00,0.00,OPEN,0
671306.276,3,1,0,1.000,1.000,1.000,-90.00,180.00,0.00,OPEN,0
671306.325,3,1,0,1.000,1.000,1.000,-90.00,180.00,0.00,OPEN,0
671306.377,3,1,0,1.000,1.000,1.000,-90.00,180.00,0.00,OPEN,0
671306.425,3,1,0,1.000,1.000,1.000,-90.00,180.00,0.00,OPEN,0
671306.475,3,1,0,1.000,1.000,1.000,-90.00,180.00,0.00,OPEN,0
671306.525,3,1,0,1.000,1.000,1.000,-90.00,180.00,0.00,OPEN,0
671306.575,3,1,0,1.000,1.000,1.000,-90.00,180.00,0.00,OPEN,0
671306.625,3,1,0,1.000,1.000,1.000,-90.00,180.00,0.00,OPEN,0
671306.675,3,1,0,1.000,1.000,1.000,-90.00,180.00,0.00,OPEN,0
671306.725,3,1,0,1.000,1.000,1.000,-90.00,180.00,0.00,OPEN,0
671306.774,3,1,0,1.000,1.000,1.000,-90.00,180.00,0.00,OPEN,0
671306.826,3,1,0,1.000,1.000,1.000,-90.00,180.00,0.00,OPEN,0
671306.875,3,1,0,1.000,1.000,1.000,-90.00,180.00,0.00,OPEN,0
671306.925,3,1,0,1.000,1.000,1.000,-90.00,180.00,0.00,OPEN,0
671306.976,3,1,0,1.000,1.000,1.000,-90.00,180.00,0.00,OPEN,0
671307.026,3,1,0,1.000,1.000,1.000,-90.00,180.00,0.00,OPEN,0
671307.076,3,1,0,1.000,1.000,1.000,-90.00,180.00,0.00,OPEN,0
671307.125,3,1,0,1.000,1.000,1.000,-90.00,180.00,0.00,OPEN,0
671307.177,3,1,0,1.000,1.000,1.000,-90.00,180.00,0.00,OPEN,0
671307.225,3,1,0,1.000,1.000,1.000,-90.00,180.00,0.00,OPEN,0
671307.275,3,1,0,1.000,1.000,1.000,-90.00,180.00,0.00,OPEN,0
671307.325,3,1,0,1.000,1.000,1.000,-90.00,180.00,0.00,OPEN,0
671307.376,3,1,0,1.000,1.000,1.000,-90.00,180.00,0.00,OPEN,0
671307.425,3,1,0,1.000,1.000,1.000,-90.00,180.00,0.00,OPEN,0
671307.476,3,1,0,1.000,1.000,1.000,-90.00,180.00,0.00,OPEN,0
671307.526,3,1,0,1.000,1.000,1.000,-90.00,180.00,0.00,OPEN,0
671307.576,3,1,0,1.000,1.000,1.000,-90.00,180.00,0.00,OPEN,0
671307.627,3,1,0,1.000,1.000,1.000,-90.00,180.00,0.00,OPEN,0
671307.675,3,1,0,1.000,1.000,1.000,-90.00,180.00,0.00,OPEN,0
671307.725,3,1,0,1.000,1.000,1.000,-90.00,180.00,0.00,OPEN,0
671307.775,3,1,0,1.000,1.000,1.000,-90.00,180.00,0.00,OPEN,0
671307.827,3,1,0,1.000,1.000,1.000,-90.00,180.00,0.00,OPEN,0
671307.875,3,1,0,1.000,1.000,1.000,-90.00,180.00,0.00,OPEN,0
671307.925,3,1,0,1.000,1.000,1.000,-90.00,180.00,0.00,OPEN,0
671307.975,3,1,0,1.000,1.000,1.000,-90.00,180.00,0.00,OPEN,0
671308.027,3,1,0,1.000,1.000,1.000,-90.00,180.00,0.00,OPEN,0
671308.075,3,1,0,1.000,1.000,1.000,-90.00,180.00,0.00,OPEN,0
671308.125,3,1,0,1.000,1.000,1.000,-90.00,180.00,0.00,OPEN,0
671308.175,3,1,0,1.000,1.000,1.000,-90.00,180.00,0.00,OPEN,0
671308.226,3,1,0,1.000,1.000,1.000,-90.00,180.00,0.00,OPEN,0
671308.276,3,1,0,1.000,1.000,1.000,-90.00,180.00,0.00,OPEN,0
671308.325,3,1,0,1.000,1.000,1.000,-90.00,180.00,0.00,OPEN,0
671308.376,3,1,0,1.000,1.000,1.000,-90.00,180.00,0.00,OPEN,0
671308.425,3,1,0,1.000,1.000,1.000,-90.00,180.00,0.00,OPEN,0
671308.476,3,1,0,1.000,1.000,1.000,-90.00,180.00,0.00,OPEN,0
671308.525,3,1,0,1.000,1.000,1.000,-90.00,180.00,0.00,OPEN,0
671308.575,3,1,0,1.000,1.000,1.000,-90.00,180.00,0.00,OPEN,0
671308.625,3,1,0,1.000,1.000,1.000,-90.00,180.00,0.00,OPEN,0
671308.675,3,1,0,1.000,1.000,1.000,-90.00,180.00,0.00,OPEN,0
671308.725,3,1,0,1.000,1.000,1.000,-90.00,180.00,0.00,OPEN,0
671308.775,3,1,0,1.000,1.000,1.000,-90.00,180.00,0.00,OPEN,0
671308.825,3,1,0,1.000,1.000,1.000,-90.00,180.00,0.00,OPEN,0
671308.875,3,1,0,1.000,1.000,1.000,-90.00,180.00,0.00,OPEN,0
671308.925,3,1,0,1.000,1.000,1.000,-90.00,180.00,0.00,OPEN,0
671308.975,3,1,0,1.000,1.000,1.000,-90.00,180.00,0.00,OPEN,0
671309.025,3,1,0,1.000,1.000,1.000,-90.00,180.00,0.00,OPEN,0
671309.075,3,1,0,1.000,1.000,1.000,-90.00,180.00,0.00,OPEN,0
671309.125,3,1,0,1.000,1.000,1.000,-90.00,180.00,0.00,OPEN,0
671309.175,3,1,0,1.000,1.000,1.000,-90.00,180.00,0.00,OPEN,0
671309.225,3,1,0,1.000,1.000,1.000,-90.00,180.00,0.00,OPEN,0
671309.276,3,1,0,1.000,1.000,1.000,-90.00,180.00,0.00,OPEN,0
671309.325,3,1,0,1.000,1.000,1.000,-90.00,180.00,0.00,OPEN,0
671309.378,3,1,0,1.000,1.000,1.000,-90.00,180.00,0.00,OPEN,0
671309.425,3,1,0,1.000,1.000,1.000,-90.00,180.00,0.00,OPEN,0
671309.475,3,1,0,1.000,1.000,1.000,-90.00,180.00,0.00,OPEN,0
671309.526,3,1,0,1.000,1.000,1.000,-90.00,180.00,0.00,OPEN,0
671309.576,3,1,0,1.000,1.000,1.000,-90.00,180.00,0.00,OPEN,0
671309.625,3,1,0,1.000,1.000,1.000,-90.00,180.00,0.00,OPEN,0
671309.676,3,1,0,1.000,1.000,1.000,-90.00,180.00,0.00,OPEN,0
671309.725,3,1,0,1.000,1.000,1.000,-90.00,180.00,0.00,OPEN,0
671309.775,3,1,0,1.000,1.000,1.000,-90.00,180.00,0.00,OPEN,0
671309.825,3,1,0,1.000,1.000,1.000,-90.00,180.00,0.00,OPEN,0
671309.876,3,1,0,1.000,1.000,1.000,-90.00,180.00,0.00,OPEN,0
671309.925,3,1,0,1.000,1.000,1.000,-90.00,180.00,0.00,OPEN,0
671309.976,3,1,0,1.000,1.000,1.000,-90.00,180.00,0.00,OPEN,0
671310.025,3,1,0,1.000,1.000,1.000,-90.00,180.00,0.00,OPEN,0
671310.076,3,1,0,1.000,1.000,1.000,-90.00,180.00,0.00,OPEN,0
671310.126,3,1,0,1.000,1.000,1.000,-90.00,180.00,0.00,OPEN,0
671310.175,3,1,0,0.999,0.999,1.000,-90.00,180.00,0.00,OPEN,0
671310.228,3,1,0,0.998,0.986,1.000,-90.00,180.00,0.00,OPEN,0
671310.275,3,1,0,0.987,0.544,1.000,-90.00,180.00,0.00,OPEN,0
671310.325,3,1,0,0.807,0.859,1.000,-90.00,180.00,0.00,OPEN,0
671310.375,3,1,0,0.489,0.987,1.000,-90.00,180.00,0.00,OPEN,0
671310.427,3,1,0,0.795,0.994,1.000,-90.00,180.00,0.00,OPEN,0
671310.475,3,1,0,0.951,1.000,1.000,-90.00,180.00,0.00,OPEN,0
671310.527,3,1,0,0.999,1.000,1.000,-90.00,180.00,0.00,OPEN,0
671310.575,3,1,0,0.999,1.000,1.000,-90.00,180.00,0.00,OPEN,0
671310.625,3,1,0,1.000,1.000,1.000,-90.00,180.00,0.00,OPEN,0
671310.676,3,1,0,1.000,1.000,1.000,-90.00,180.00,0.00,OPEN,0
671310.726,3,1,0,1.000,1.000,1.000,-90.00,180.00,0.00,OPEN,0
671310.775,0,1,0,1.000,1.000,1.000,-90.00,180.00,0.00,OPEN,0
671310.829,0,1,0,1.000,1.000,1.000,-90.00,180.00,0.00,OPEN,0
671310.876,0,1,0,1.000,1.000,1.000,-90.00,180.00,0.00,OPEN,0
671310.925,0,1,0,1.000,1.000,1.000,-90.00,180.00,0.00,OPEN,0
671310.976,0,1,0,1.000,1.000,1.000,-90.00,180.00,0.00,OPEN,0
671311.025,0,1,0,1.000,1.000,1.000,-90.00,180.00,0.00,OPEN,0
671311.078,0,1,0,1.000,1.000,1.000,-90.00,180.00,0.00,OPEN,0
671311.125,0,1,0,1.000,1.000,1.000,-90.00,180.00,0.00,OPEN,0
671311.175,0,1,0,1.000,1.000,1.000,-90.00,180.00,0.00,OPEN,0
671311.225,0,0,0,1.000,1.000,1.000,-90.00,180.00,0.00,OPEN,0
671311.275,0,0,0,1.000,1.000,1.000,-90.00,180.00,0.00,OPEN,0
671311.325,0,0,0,1.000,1.000,1.000,-90.00,180.00,0.00,OPEN,0
671311.376,0,0,0,1.000,1.000,1.000,-90.00,180.00,0.00,OPEN,0
671311.425,0,0,0,1.000,1.000,1.000,-90.00,180.00,0.00,OPEN,0
671311.475,0,0,0,1.000,1.000,1.000,-90.00,180.00,0.00,OPEN,0
671311.525,0,0,0,1.000,1.000,1.000,-90.00,180.00,0.00,OPEN,0
671311.575,0,0,0,1.000,1.000,1.000,-90.00,180.00,0.00,OPEN,0
671311.625,0,0,0,1.000,1.000,1.000,-90.00,180.00,0.00,OPEN,0
671311.675,0,0,0,1.000,1.000,1.000,-90.00,180.00,0.00,OPEN,0
671311.726,0,0,0,1.000,1.000,1.000,-90.00,180.00,0.00,OPEN,0
671311.774,0,0,0,1.000,1.000,1.000,-90.00,180.00,0.00,OPEN,0
671311.826,0,0,0,1.000,1.000,1.000,-90.00,180.00,0.00,OPEN,0
671311.875,0,0,0,1.000,1.000,1.000,-90.00,180.00,0.00,OPEN,0
671311.925,0,0,0,1.000,1.000,1.000,-90.00,180.00,0.00,OPEN,0
671311.975,0,0,0,1.000,1.000,1.000,-90.00,180.00,0.00,OPEN,0
671312.026,0,0,0,1.000,1.000,1.000,-90.00,180.00,0.00,OPEN,0
671312.075,0,0,0,1.000,1.000,1.000,-90.00,180.00,0.00,OPEN,0
671312.125,0,0,0,1.000,1.000,1.000,-90.00,180.00,0.00,OPEN,0
671312.175,0,0,0,1.000,1.000,1.000,-90.00,180.00,0.00,OPEN,0
671312.227,0,0,0,1.000,1.000,1.000,-90.00,180.00,0.00,OPEN,0
671312.276,0,0,0,1.000,1.000,1.000,-90.00,180.00,0.00,OPEN,0
671312.325,0,0,0,1.000,1.000,1.000,-90.00,180.00,0.00,OPEN,0
671312.376,0,0,0,1.000,1.000,1.000,-90.00,180.00,0.00,OPEN,0
671312.425,0,0,0,1.000,1.000,1.000,-90.00,180.00,0.00,OPEN,0
671312.475,0,0,0,1.000,1.000,1.000,-90.00,180.00,0.00,OPEN,0
671312.526,0,0,0,1.000,1.000,1.000,-90.00,180.00,0.00,OPEN,0
671312.575,0,0,0,1.000,1.000,1.000,-90.00,180.00,0.00,OPEN,0
671312.626,0,0,0,1.000,1.000,1.000,-90.00,180.00,0.00,OPEN,0
671312.676,0,0,0,1.000,1.000,1.000,-90.00,180.00,0.00,OPEN,0
671312.725,0,0,0,1.000,1.000,1.000,-90.00,180.00,0.00,OPEN,0
671312.775,0,0,0,1.000,1.000,1.000,-90.00,180.00,0.00,OPEN,0
671312.825,0,0,0,1.000,1.000,1.000,-90.00,180.00,0.00,OPEN,0
671312.875,0,0,0,1.000,1.000,1.000,-90.00,180.00,0.00,OPEN,0
671312.926,0,0,0,1.000,1.000,1.000,-90.00,180.00,0.00,OPEN,0
671312.975,0,0,0,1.000,1.000,1.000,-90.00,180.00,0.00,OPEN,0
671313.026,0,0,0,1.000,1.000,1.000,-90.00,180.00,0.00,OPEN,0
671313.075,0,0,0,1.000,1.000,1.000,-90.00,180.00,0.00,OPEN,0
671313.125,0,0,0,1.000,1.000,1.000,-90.00,180.00,0.00,OPEN,0
671313.175,0,0,0,1.000,1.000,1.000,-90.00,180.00,0.00,OPEN,0
671313.225,0,0,0,1.000,1.000,1.000,-90.00,180.00,0.00,OPEN,0
671313.275,0,0,0,1.000,1.000,1.000,-90.00,180.00,0.00,OPEN,0
671313.325,0,0,0,1.000,1.000,1.000,-90.00,180.00,0.00,OPEN,0
671313.375,0,0,0,1.000,1.000,1.000,-90.00,180.00,0.00,OPEN,0
671313.426,0,0,0,1.000,1.000,1.000,-90.00,180.00,0.00,OPEN,0
671313.475,0,0,0,1.000,1.000,1.000,-90.00,180.00,0.00,OPEN,0
671313.526,0,0,0,1.000,1.000,1.000,-90.00,180.00,0.00,OPEN,0
671313.575,0,0,0,1.000,1.000,1.000,-90.00,180.00,0.00,OPEN,0
671313.625,0,0,0,1.000,1.000,1.000,-90.00,180.00,0.00,OPEN,0
671313.679,0,0,0,1.000,1.000,1.000,-90.00,180.00,0.00,OPEN,0
671313.726,0,0,0,1.000,1.000,1.000,-90.00,180.00,0.00,OPEN,0
671313.775,0,0,0,1.000,1.000,1.000,-90.00,180.00,0.00,OPEN,0
671313.825,0,0,0,1.000,1.000,1.000,-90.00,180.00,0.00,OPEN,0
671313.875,0,0,0,1.000,1.000,1.000,-90.00,180.00,0.00,OPEN,0
671313.925,0,0,0,1.000,1.000,1.000,-90.00,180.00,0.00,OPEN,0
671313.975,0,0,0,1.000,1.000,1.000,-90.00,180.00,0.00,OPEN,0
671314.027,0,0,0,1.000,1.000,1.000,-90.00,180.00,0.00,OPEN,0
671314.075,0,0,0,1.000,1.000,1.000,-90.00,180.00,0.00,OPEN,0
671314.126,0,0,0,1.000,1.000,1.000,-90.00,180.00,0.00,OPEN,0
671314.178,0,0,0,1.000,1.000,1.000,-90.00,180.00,0.00,OPEN,0
671314.225,0,0,0,1.000,1.000,1.000,-90.00,180.00,0.00,OPEN,0
671314.275,0,0,0,1.000,1.000,1.000,-90.00,180.00,0.00,OPEN,0
671314.326,0,0,0,1.000,1.000,1.000,-90.00,180.00,0.00,OPEN,0
671314.375,0,0,0,1.000,1.000,1.000,-90.00,180.00,0.00,OPEN,0
671314.427,0,0,0,1.000,1.000,1.000,-90.00,180.00,0.00,OPEN,0
671314.475,0,0,0,1.000,1.000,1.000,-90.00,180.00,0.00,OPEN,0
671314.525,0,0,0,1.000,1.000,1.000,-90.00,180.00,0.00,OPEN,0
671314.576,0,0,0,1.000,1.000,1.000,-90.00,180.00,0.00,OPEN,0
671314.625,0,0,0,1.000,1.000,1.000,-90.00,180.00,0.00,OPEN,0
671314.675,0,0,0,1.000,1.000,1.000,-90.00,180.00,0.00,OPEN,0
671314.727,0,0,0,1.000,1.000,1.000,-90.00,180.00,0.00,OPEN,0
671314.776,0,0,0,1.000,1.000,1.000,-90.00,180.00,0.00,OPEN,0
671314.826,0,0,0,1.000,1.000,1.000,-90.00,180.00,0.00,OPEN,0
671314.875,0,0,0,1.000,1.000,1.000,-90.00,180.00,0.00,OPEN,0
671314.926,0,0,0,1.000,1.000,1.000,-90.00,180.00,0.00,OPEN,0
671314.975,0,0,0,1.000,1.000,1.000,-90.00,180.00,0.00,OPEN,0
671315.026,0,0,0,1.000,1.000,1.000,-90.00,180.00,0.00,OPEN,0
671315.075,0,0,0,1.000,1.000,1.000,-90.00,180.00,0.00,OPEN,0
671315.125,0,0,0,1.000,1.000,1.000,-90.00,180.00,0.00,OPEN,0
671315.175,0,0,0,1.000,1.000,1.000,-90.00,180.00,0.00,OPEN,0
671315.228,0,0,0,1.000,1.000,1.000,-90.00,180.00,0.00,OPEN,0
671315.275,0,0,0,1.000,1.000,1.000,-90.00,180.00,0.00,OPEN,0
671315.325,0,0,0,1.000,1.000,1.000,-90.00,180.00,0.00,OPEN,0
671315.375,0,0,0,1.000,1.000,1.000,-90.00,180.00,0.00,OPEN,0
671315.426,0,0,0,1.000,1.000,1.000,-90.00,180.00,0.00,OPEN,0
671315.475,0,0,0,1.000,1.000,1.000,-90.00,180.00,0.00,OPEN,0
671315.525,0,0,0,1.000,1.000,1.000,-90.00,180.00,0.00,OPEN,0
671315.576,0,0,0,1.000,1.000,1.000,-90.00,180.00,0.00,OPEN,0
671315.626,0,0,0,1.000,1.000,1.000,-90.00,180.00,0.00,OPEN,0
671315.675,0,0,0,1.000,1.000,1.000,-90.00,180.00,0.00,OPEN,0
671315.726,0,0,0,1.000,1.000,1.000,-90.00,180.00,0.00,OPEN,0
671315.775,0,0,0,1.000,1.000,1.000,-90.00,180.00,0.00,OPEN,0
671315.825,0,0,0,1.000,1.000,1.000,-90.00,180.00,0.00,OPEN,0
671315.876,0,0,0,1.000,1.000,1.000,-90.00,180.00,0.00,OPEN,0
671315.925,0,0,0,1.000,1.000,1.000,-90.00,180.00,0.00,OPEN,0
671315.976,0,0,0,1.000,1.000,1.000,-90.00,180.00,0.00,OPEN,0
671316.025,0,0,0,1.000,1.000,1.000,-90.00,180.00,0.00,OPEN,0
671316.075,0,0,0,1.000,1.000,1.000,-90.00,180.00,0.00,OPEN,0
671316.125,0,0,0,1.000,1.000,1.000,-90.00,180.00,0.00,OPEN,0
671316.175,0,0,0,1.000,1.000,1.000,-90.00,180.00,0.00,OPEN,0
671316.225,0,0,0,1.000,1.000,1.000,-90.00,180.00,0.00,OPEN,0
671316.276,0,0,0,1.000,1.000,1.000,-90.00,180.00,0.00,OPEN,0
671316.325,0,0,0,1.000,1.000,1.000,-90.00,180.00,0.00,OPEN,0
671316.375,0,0,0,1.000,1.000,1.000,-90.00,180.00,0.00,OPEN,0
671316.426,0,0,0,1.000,1.000,1.000,-90.00,180.00,0.00,OPEN,0
671316.477,0,0,0,1.000,1.000,1.000,-90.00,180.00,0.00,OPEN,0
671316.525,0,0,0,1.000,1.000,1.000,-90.00,180.00,0.00,OPEN,0
671316.576,0,0,0,1.000,1.000,1.000,-90.00,180.00,0.00,OPEN,0
671316.625,0,0,0,1.000,1.000,1.000,-90.00,180.00,0.00,OPEN,0
671316.676,0,0,0,1.000,1.000,1.000,-90.00,180.00,0.00,OPEN,0
671316.725,0,0,0,1.000,1.000,1.000,-90.00,180.00,0.00,OPEN,0
671316.775,0,0,0,1.000,1.000,1.000,-90.00,180.00,0.00,OPEN,0
671316.825,0,0,0,1.000,1.000,1.000,-90.00,180.00,0.00,OPEN,0
671316.875,0,0,0,1.000,1.000,1.000,-90.00,180.00,0.00,OPEN,0
671316.925,0,0,0,0.998,1.000,1.000,-90.00,180.00,0.00,OPEN,0
671316.979,0,0,0,0.959,1.000,1.000,-90.00,180.00,0.00,OPEN,0
671317.025,0,0,0,0.823,1.000,1.000,-90.00,180.00,0.00,OPEN,0
671317.076,0,0,0,0.739,1.000,1.000,-90.00,180.00,0.00,OPEN,0
671317.125,0,0,0,0.466,1.000,1.000,-90.00,180.00,0.00,OPEN,0
671317.176,0,0,0,0.552,1.000,1.000,-90.00,180.00,0.00,OPEN,0
671317.225,0,0,0,0.704,0.556,1.000,-90.00,180.00,0.00,OPEN,0
671317.278,0,0,0,0.512,1.000,1.000,-90.00,180.00,0.00,OPEN,0
671317.325,0,0,0,0.946,1.000,1.000,-90.00,180.00,0.00,OPEN,0
671317.375,0,0,0,0.999,1.000,1.000,-90.00,180.00,0.00,OPEN,0
671317.425,0,0,0,1.000,1.000,1.000,-90.00,180.00,0.00,OPEN,0
671317.475,0,0,0,1.000,1.000,1.000,-90.00,180.00,0.00,OPEN,0
671317.525,0,0,0,1.000,1.000,1.000,-90.00,180.00,0.00,OPEN,0
671317.575,3,0,0,1.000,1.000,1.000,-90.00,180.00,0.00,OPEN,0
671317.625,3,0,0,1.000,1.000,1.000,-90.00,180.00,0.00,OPEN,0
671317.675,3,0,0,1.000,1.000,1.000,-90.00,180.00,0.00,OPEN,0
671317.726,3,0,0,1.000,1.000,0.999,-90.00,180.00,0.00,OPEN,0
671317.775,3,0,0,1.000,1.000,0.998,-90.00,180.00,0.00,OPEN,0
671317.826,3,0,0,1.000,1.000,0.997,-90.00,180.00,0.00,OPEN,0
671317.876,3,0,0,1.000,1.000,0.991,-90.00,180.00,0.00,OPEN,0
671317.925,3,0,0,1.000,1.000,0.985,-90.00,180.00,0.00,OPEN,0
671317.980,3,0,0,1.000,1.000,0.970,-90.00,180.00,0.00,OPEN,0
671318.025,3,0,0,1.000,1.000,0.909,-90.00,180.00,0.00,OPEN,0
671318.076,3,0,0,1.000,1.000,0.574,-90.00,180.00,0.00,OPEN,0
671318.124,3,0,0,1.000,1.000,0.932,-90.00,180.00,0.00,OPEN,0
671318.175,3,1,0,1.000,1.000,0.996,-90.00,180.00,0.00,OPEN,0
671318.225,3,1,0,1.000,1.000,1.000,-90.00,180.00,0.00,OPEN,0
671318.277,3,1,0,1.000,1.000,1.000,-90.00,180.00,0.00,OPEN,0
671318.325,3,1,0,1.000,1.000,1.000,-90.00,180.00,0.00,OPEN,0
671318.376,3,1,0,1.000,1.000,1.000,-90.00,180.00,0.00,OPEN,0
671318.425,3,1,0,1.000,1.000,1.000,-90.00,180.00,0.00,OPEN,0
671318.476,3,1,0,1.000,1.000,1.000,-90.00,180.00,0.00,OPEN,0
671318.525,3,1,0,1.000,1.000,1.000,-90.00,180.00,0.00,OPEN,0
671318.576,3,1,0,1.000,1.000,1.000,-90.00,180.00,0.00,OPEN,0
671318.625,3,1,0,1.000,1.000,1.000,-90.00,180.00,0.00,OPEN,0
671318.676,3,1,0,1.000,1.000,1.000,-90.00,180.00,0.00,OPEN,0
671318.726,3,1,0,1.000,0.998,1.000,-90.00,180.00,0.00,OPEN,0
671318.775,3,1,0,1.000,1.000,1.000,-90.00,180.00,0.00,OPEN,0
671318.825,3,1,0,1.000,1.000,1.000,-90.00,180.00,0.00,OPEN,0
671318.875,3,1,0,1.000,1.000,1.000,-90.00,180.00,0.00,OPEN,0
671318.926,3,1,0,1.000,1.000,1.000,-90.00,180.00,0.00,OPEN,0
671318.976,3,1,0,1.000,1.000,1.000,-90.00,180.00,0.00,OPEN,0
671319.028,3,1,1,1.000,1.000,1.000,-90.00,180.00,0.00,OPEN,0
671319.076,3,1,1,1.000,1.000,1.000,-90.00,180.00,0.00,OPEN,0
671319.125,3,1,1,1.000,1.000,1.000,-90.00,180.00,0.00,OPEN,0
671319.177,3,1,1,1.000,1.000,1.000,-90.00,180.00,0.00,OPEN,0
671319.226,3,1,1,1.000,1.000,1.000,-90.00,180.00,0.00,OPEN,0
671319.275,3,1,1,1.000,1.000,1.000,-90.00,180.00,0.00,OPEN,0
671319.325,3,1,1,1.000,1.000,1.000,-90.00,180.00,0.00,OPEN,0
671319.376,3,1,1,1.000,1.000,1.000,-90.00,180.00,0.00,OPEN,0
671319.425,3,1,1,1.000,1.000,1.000,-90.00,180.00,0.00,OPEN,0
671319.476,3,1,1,1.000,1.000,1.000,-90.00,180.00,0.00,OPEN,0
