t,hand,elbow,shoulder,p_hand,p_elbow,p_shoulder,J2,J3,J6,grip_state,cmd_sent
553119.965,0,0,0,1.000,1.000,1.000,-90.00,180.00,0.00,OPEN,0
553120.016,0,0,0,1.000,1.000,1.000,-90.00,180.00,0.00,OPEN,0
553120.066,0,0,0,1.000,1.000,1.000,-90.00,180.00,0.00,OPEN,0
553120.117,0,0,0,1.000,1.000,1.000,-90.00,180.00,0.00,OPEN,0
553120.168,0,0,0,1.000,1.000,1.000,-90.00,180.00,0.00,OPEN,0
553120.218,0,0,0,1.000,1.000,1.000,-90.00,180.00,0.00,OPEN,0
553120.269,0,0,0,1.000,1.000,1.000,-90.00,180.00,0.00,OPEN,0
553120.319,0,0,0,1.000,1.000,1.000,-90.00,180.00,0.00,OPEN,0
553120.369,0,0,0,1.000,1.000,1.000,-90.00,180.00,0.00,OPEN,0
553120.420,0,0,0,1.000,1.000,1.000,-90.00,180.00,0.00,OPEN,0
553120.471,0,0,0,1.000,1.000,1.000,-90.00,180.00,0.00,OPEN,0
553120.521,0,0,0,1.000,1.000,1.000,-90.00,180.00,0.00,OPEN,0
553120.572,0,0,0,1.000,1.000,1.000,-90.00,180.00,0.00,OPEN,0
553120.622,0,0,0,1.000,1.000,1.000,-90.00,180.00,0.00,OPEN,0
553120.673,0,0,0,1.000,1.000,1.000,-90.00,180.00,0.00,OPEN,0
553120.723,0,0,0,1.000,1.000,1.000,-90.00,180.00,0.00,OPEN,0
553120.774,0,0,0,1.000,1.000,1.000,-90.00,180.00,0.00,OPEN,0
553120.825,0,0,0,1.000,1.000,1.000,-90.00,180.00,0.00,OPEN,0
553120.875,0,0,0,1.000,1.000,1.000,-90.00,180.00,0.00,OPEN,0
553120.926,0,0,0,1.000,1.000,1.000,-90.00,180.00,0.00,OPEN,0
553120.976,0,0,0,1.000,1.000,1.000,-90.00,180.00,0.00,OPEN,0
553121.028,0,0,0,1.000,1.000,1.000,-90.00,180.00,0.00,OPEN,0
553121.079,0,0,0,1.000,1.000,1.000,-90.00,180.00,0.00,OPEN,0
553121.130,0,0,0,1.000,1.000,1.000,-90.00,180.00,0.00,OPEN,0
553121.181,0,0,0,1.000,1.000,1.000,-90.00,180.00,0.00,OPEN,0
553121.231,0,0,0,1.000,1.000,1.000,-90.00,180.00,0.00,OPEN,0
553121.282,0,0,0,1.000,1.000,1.000,-90.00,180.00,0.00,OPEN,0
553121.333,0,0,0,1.000,1.000,1.000,-90.00,180.00,0.00,OPEN,0
553121.383,0,0,0,1.000,1.000,1.000,-90.00,180.00,0.00,OPEN,0
553121.434,0,0,0,1.000,1.000,1.000,-90.00,180.00,0.00,OPEN,0
553121.484,0,0,0,1.000,1.000,1.000,-90.00,180.00,0.00,OPEN,0
553121.535,0,0,0,1.000,1.000,1.000,-90.00,180.00,0.00,OPEN,0
553121.586,0,0,0,1.000,1.000,1.000,-90.00,180.00,0.00,OPEN,0
553121.636,0,0,0,1.000,1.000,1.000,-90.00,180.00,0.00,OPEN,0
553121.687,0,0,0,1.000,1.000,1.000,-90.00,180.00,0.00,OPEN,0
553121.737,0,0,0,1.000,1.000,1.000,-90.00,180.00,0.00,OPEN,0
553121.787,0,0,0,1.000,1.000,1.000,-90.00,180.00,0.00,OPEN,0
553121.838,0,0,0,1.000,1.000,1.000,-90.00,180.00,0.00,OPEN,0
553121.888,0,0,0,1.000,1.000,1.000,-90.00,180.00,0.00,OPEN,0
553121.939,0,0,0,1.000,1.000,1.000,-90.00,180.00,0.00,OPEN,0
553121.989,0,0,0,1.000,1.000,1.000,-90.00,180.00,0.00,OPEN,0
553122.040,0,0,0,1.000,1.000,1.000,-90.00,180.00,0.00,OPEN,0
553122.090,0,0,0,1.000,1.000,1.000,-90.00,180.00,0.00,OPEN,0
553122.141,0,0,0,1.000,1.000,1.000,-90.00,180.00,0.00,OPEN,0
553122.192,0,0,0,1.000,1.000,1.000,-90.00,180.00,0.00,OPEN,0
553122.243,0,0,0,1.000,1.000,1.000,-90.00,180.00,0.00,OPEN,0
553122.293,0,0,0,1.000,1.000,1.000,-90.00,180.00,0.00,OPEN,0
553122.344,0,0,0,1.000,1.000,1.000,-90.00,180.00,0.00,OPEN,0
553122.395,0,0,0,1.000,1.000,1.000,-90.00,180.00,0.00,OPEN,0
553122.445,0,0,0,1.000,1.000,1.000,-90.00,180.00,0.00,OPEN,0
553122.496,0,0,0,1.000,1.000,1.000,-90.00,180.00,0.00,OPEN,0
553122.546,0,0,0,1.000,1.000,1.000,-90.00,180.00,0.00,OPEN,0
553122.597,0,0,0,1.000,1.000,1.000,-90.00,180.00,0.00,OPEN,0
553122.647,0,0,0,1.000,1.000,1.000,-90.00,180.00,0.00,OPEN,0
553122.698,0,0,0,1.000,1.000,1.000,-90.00,180.00,0.00,OPEN,0
553122.749,0,0,0,1.000,1.000,1.000,-90.00,180.00,0.00,OPEN,0
553122.799,0,0,0,1.000,1.000,1.000,-90.00,180.00,0.00,OPEN,0
553122.850,0,0,0,1.000,1.000,1.000,-90.00,180.00,0.00,OPEN,0
553122.900,0,0,0,1.000,1.000,1.000,-90.00,180.00,0.00,OPEN,0
553122.951,0,0,0,1.000,1.000,1.000,-90.00,180.00,0.00,OPEN,0
553123.002,0,0,0,1.000,1.000,1.000,-90.00,180.00,0.00,OPEN,0
553123.052,0,0,0,1.000,1.000,1.000,-90.00,180.00,0.00,OPEN,0
553123.103,0,0,0,1.000,1.000,1.000,-90.00,180.00,0.00,OPEN,0
553123.153,0,0,0,1.000,1.000,1.000,-90.00,180.00,0.00,OPEN,0
553123.204,0,0,0,1.000,1.000,1.000,-90.00,180.00,0.00,OPEN,0
553123.255,0,0,0,1.000,1.000,1.000,-90.00,180.00,0.00,OPEN,0
553123.305,0,0,0,1.000,1.000,1.000,-90.00,180.00,0.00,OPEN,0
553123.356,0,0,0,1.000,1.000,1.000,-90.00,180.00,0.00,OPEN,0
553123.407,0,0,0,1.000,1.000,1.000,-90.00,180.00,0.00,OPEN,0
553123.457,0,0,0,1.000,1.000,1.000,-90.00,180.00,0.00,OPEN,0
553123.508,0,0,0,1.000,1.000,1.000,-90.00,180.00,0.00,OPEN,0
553123.558,0,0,0,1.000,1.000,1.000,-90.00,180.00,0.00,OPEN,0
553123.609,0,0,0,1.000,1.000,1.000,-90.00,180.00,0.00,OPEN,0
553123.660,0,0,0,1.000,1.000,1.000,-90.00,180.00,0.00,OPEN,0
553123.711,0,0,0,1.000,1.000,1.000,-90.00,180.00,0.00,OPEN,0
553123.761,0,0,0,1.000,1.000,1.000,-90.00,180.00,0.00,OPEN,0
553123.812,0,0,0,1.000,1.000,1.000,-90.00,180.00,0.00,OPEN,0
553123.862,0,0,0,1.000,1.000,1.000,-90.00,180.00,0.00,OPEN,0
553123.913,0,0,0,1.000,1.000,1.000,-90.00,180.00,0.00,OPEN,0
553123.963,0,0,0,1.000,1.000,1.000,-90.00,180.00,0.00,OPEN,0
553124.014,0,0,0,1.000,1.000,1.000,-90.00,180.00,0.00,OPEN,0
553124.065,0,0,0,1.000,1.000,1.000,-90.00,180.00,0.00,OPEN,0
553124.115,0,0,0,1.000,1.000,1.000,-90.00,180.00,0.00,OPEN,0
553124.166,0,0,0,1.000,1.000,1.000,-90.00,180.00,0.00,OPEN,0
553124.216,0,0,0,1.000,1.000,1.000,-90.00,180.00,0.00,OPEN,0
553124.267,0,0,0,1.000,1.000,1.000,-90.00,180.00,0.00,OPEN,0
553124.317,0,0,0,1.000,1.000,1.000,-90.00,180.00,0.00,OPEN,0
553124.367,0,0,0,1.000,1.000,1.000,-90.00,180.00,0.00,OPEN,0
553124.418,0,0,0,1.000,1.000,1.000,-90.00,180.00,0.00,OPEN,0
553124.469,0,0,0,1.000,1.000,1.000,-90.00,180.00,0.00,OPEN,0
553124.519,0,0,0,1.000,1.000,1.000,-90.00,180.00,0.00,OPEN,0
553124.570,0,0,0,1.000,1.000,1.000,-90.00,180.00,0.00,OPEN,0
553124.620,0,0,0,1.000,1.000,1.000,-90.00,180.00,0.00,OPEN,0
553124.671,0,0,0,1.000,1.000,1.000,-90.00,180.00,0.00,OPEN,0
553124.721,0,0,0,1.000,1.000,1.000,-90.00,180.00,0.00,OPEN,0
553124.772,0,0,0,1.000,1.000,1.000,-90.00,180.00,0.00,OPEN,0
553124.822,0,0,0,1.000,1.000,1.000,-90.00,180.00,0.00,OPEN,0
553124.873,0,0,0,1.000,1.000,1.000,-90.00,180.00,0.00,OPEN,0
553124.923,0,0,0,1.000,1.000,1.000,-90.00,180.00,0.00,OPEN,0
553124.974,0,0,0,1.000,1.000,1.000,-90.00,180.00,0.00,OPEN,0
553125.025,0,0,0,1.000,1.000,1.000,-90.00,180.00,0.00,OPEN,0
553125.075,0,0,0,1.000,1.000,1.000,-90.00,180.00,0.00,OPEN,0
553125.126,0,0,0,1.000,1.000,1.000,-90.00,180.00,0.00,OPEN,0
553125.176,0,0,0,1.000,1.000,1.000,-90.00,180.00,0.00,OPEN,0
553125.227,0,0,0,1.000,1.000,1.000,-90.00,180.00,0.00,OPEN,0
553125.277,0,0,0,1.000,1.000,1.000,-90.00,180.00,0.00,OPEN,0
553125.328,1,0,0,1.000,1.000,1.000,-90.00,180.00,4.50,OPEN,1
553125.380,1,0,0,1.000,1.000,1.000,-90.00,180.00,4.50,OPEN,0
553125.431,1,0,0,1.000,1.000,1.000,-90.00,180.00,9.00,OPEN,1
553125.483,1,0,0,1.000,1.000,1.000,-90.00,180.00,9.00,OPEN,0
553125.534,1,0,0,1.000,1.000,1.000,-90.00,180.00,13.50,OPEN,1
553125.586,1,0,0,1.000,1.000,1.000,-90.00,180.00,13.50,OPEN,0
553125.636,1,0,0,1.000,1.000,1.000,-90.00,180.00,18.00,OPEN,1
553125.689,1,0,0,1.000,1.000,1.000,-90.00,180.00,18.00,OPEN,0
553125.739,1,0,0,1.000,1.000,1.000,-90.00,180.00,22.50,OPEN,1
553125.791,1,0,0,1.000,1.000,1.000,-90.00,180.00,22.50,OPEN,0
553125.841,1,0,0,1.000,1.000,1.000,-90.00,180.00,27.00,OPEN,1
553125.895,1,0,0,1.000,1.000,1.000,-90.00,180.00,27.00,OPEN,0
553125.945,1,0,0,1.000,1.000,1.000,-90.00,180.00,31.50,OPEN,1
553125.997,1,0,0,1.000,1.000,1.000,-90.00,180.00,31.50,OPEN,0
553126.048,1,0,0,1.000,1.000,1.000,-90.00,180.00,36.00,OPEN,1
553126.100,1,0,0,1.000,1.000,1.000,-90.00,180.00,36.00,OPEN,0
553126.151,1,0,0,1.000,1.000,1.000,-90.00,180.00,40.50,OPEN,1
553126.202,1,0,0,1.000,1.000,1.000,-90.00,180.00,40.50,OPEN,0
553126.253,1,0,0,1.000,1.000,1.000,-90.00,180.00,45.00,OPEN,1
553126.305,1,0,0,1.000,1.000,1.000,-90.00,180.00,45.00,OPEN,0
553126.355,1,0,0,1.000,1.000,1.000,-90.00,180.00,49.50,OPEN,1
553126.407,1,0,0,1.000,1.000,1.000,-90.00,180.00,49.50,OPEN,0
553126.458,1,0,0,1.000,1.000,1.000,-90.00,180.00,54.00,OPEN,1
553126.510,1,0,0,1.000,1.000,1.000,-90.00,180.00,54.00,OPEN,0
553126.561,1,0,0,1.000,1.000,1.000,-90.00,180.00,58.50,OPEN,1
553126.614,1,0,0,1.000,1.000,1.000,-90.00,180.00,58.50,OPEN,0
553126.664,1,0,0,1.000,1.000,1.000,-90.00,180.00,63.00,OPEN,1
553126.716,1,0,0,1.000,1.000,1.000,-90.00,180.00,63.00,OPEN,0
553126.767,1,0,0,1.000,1.000,1.000,-90.00,180.00,67.50,OPEN,1
553126.819,1,0,0,1.000,1.000,1.000,-90.00,180.00,67.50,OPEN,0
553126.869,1,0,0,1.000,1.000,1.000,-90.00,180.00,72.00,OPEN,1
553126.921,1,0,0,1.000,1.000,1.000,-90.00,180.00,72.00,OPEN,0
553126.972,1,0,0,1.000,1.000,1.000,-90.00,180.00,76.50,OPEN,1
553127.024,1,0,0,1.000,1.000,1.000,-90.00,180.00,76.50,OPEN,0
553127.075,1,0,0,1.000,1.000,1.000,-90.00,180.00,81.00,OPEN,1
553127.127,1,0,0,1.000,1.000,1.000,-90.00,180.00,81.00,OPEN,0
553127.178,1,0,0,1.000,1.000,1.000,-90.00,180.00,85.50,OPEN,1
553127.230,1,0,0,1.000,1.000,1.000,-90.00,180.00,85.50,OPEN,0
553127.281,1,0,0,1.000,1.000,1.000,-90.00,180.00,90.00,OPEN,1
553127.333,1,0,0,1.000,1.000,1.000,-90.00,180.00,90.00,OPEN,0
553127.383,1,0,0,1.000,1.000,1.000,-90.00,180.00,94.50,OPEN,1
553127.435,1,0,0,1.000,1.000,1.000,-90.00,180.00,94.50,OPEN,0
553127.486,1,0,0,1.000,1.000,1.000,-90.00,180.00,99.00,OPEN,1
553127.538,1,0,0,1.000,1.000,1.000,-90.00,180.00,99.00,OPEN,0
553127.589,1,0,0,1.000,1.000,1.000,-90.00,180.00,103.50,OPEN,1
553127.641,1,0,0,1.000,1.000,1.000,-90.00,180.00,103.50,OPEN,0
553127.692,1,0,0,1.000,1.000,1.000,-90.00,180.00,108.00,OPEN,1
553127.744,1,0,0,1.000,1.000,1.000,-90.00,180.00,108.00,OPEN,0
553127.795,1,0,0,1.000,1.000,1.000,-90.00,180.00,112.50,OPEN,1
553127.847,1,0,0,1.000,1.000,1.000,-90.00,180.00,112.50,OPEN,0
553127.897,1,0,0,1.000,1.000,1.000,-90.00,180.00,117.00,OPEN,1
553127.949,1,0,0,1.000,1.000,1.000,-90.00,180.00,117.00,OPEN,0
553127.999,1,0,0,1.000,1.000,1.000,-90.00,180.00,121.50,OPEN,1
553128.052,1,0,0,1.000,1.000,1.000,-90.00,180.00,121.50,OPEN,0
553128.102,1,0,0,1.000,1.000,1.000,-90.00,180.00,126.00,OPEN,1
553128.155,1,0,0,1.000,1.000,1.000,-90.00,180.00,126.00,OPEN,0
553128.205,1,0,0,1.000,1.000,1.000,-90.00,180.00,130.50,OPEN,1
553128.257,1,0,0,1.000,1.000,1.000,-90.00,180.00,130.50,OPEN,0
553128.307,1,0,0,1.000,1.000,1.000,-90.00,180.00,135.00,OPEN,1
553128.359,1,0,0,1.000,1.000,1.000,-90.00,180.00,135.00,OPEN,0
553128.409,1,0,0,1.000,1.000,1.000,-90.00,180.00,139.50,OPEN,1
553128.462,1,0,0,1.000,1.000,1.000,-90.00,180.00,139.50,OPEN,0
553128.512,1,0,0,1.000,1.000,1.000,-90.00,180.00,144.00,OPEN,1
553128.564,1,0,0,1.000,1.000,1.000,-90.00,180.00,144.00,OPEN,0
553128.615,1,0,0,1.000,1.000,1.000,-90.00,180.00,148.50,OPEN,1
553128.667,1,0,0,1.000,1.000,1.000,-90.00,180.00,148.50,OPEN,0
553128.717,1,0,0,1.000,1.000,1.000,-90.00,180.00,153.00,OPEN,1
553128.769,1,0,0,1.000,1.000,1.000,-90.00,180.00,153.00,OPEN,0
553128.820,1,0,0,1.000,1.000,1.000,-90.00,180.00,157.50,OPEN,1
553128.872,1,0,0,1.000,1.000,1.000,-90.00,180.00,157.50,OPEN,0
553128.923,1,0,0,1.000,1.000,1.000,-90.00,180.00,162.00,OPEN,1
553128.975,1,0,0,1.000,1.000,1.000,-90.00,180.00,162.00,OPEN,0
553129.025,1,0,0,1.000,1.000,1.000,-90.00,180.00,166.50,OPEN,1
553129.076,1,0,0,1.000,1.000,1.000,-90.00,180.00,166.50,OPEN,0
553129.127,1,0,0,1.000,1.000,1.000,-90.00,180.00,171.00,OPEN,1
553129.180,1,0,0,1.000,1.000,1.000,-90.00,180.00,171.00,OPEN,0
553129.230,1,0,0,1.000,1.000,1.000,-90.00,180.00,175.50,OPEN,1
553129.283,1,0,0,1.000,1.000,1.000,-90.00,180.00,175.50,OPEN,0
553129.333,1,0,0,1.000,1.000,1.000,-90.00,180.00,180.00,OPEN,1
553129.386,1,0,0,1.000,1.000,1.000,-90.00,180.00,180.00,OPEN,0
553129.436,1,0,0,1.000,1.000,1.000,-90.00,180.00,180.00,OPEN,0
553129.487,1,0,0,1.000,1.000,1.000,-90.00,180.00,180.00,OPEN,0
553129.538,1,0,0,1.000,1.000,1.000,-90.00,180.00,180.00,OPEN,0
553129.588,1,0,0,1.000,1.000,1.000,-90.00,180.00,180.00,OPEN,0
553129.639,1,0,0,1.000,1.000,1.000,-90.00,180.00,180.00,OPEN,0
553129.689,1,0,0,1.000,1.000,1.000,-90.00,180.00,180.00,OPEN,0
553129.740,1,0,0,1.000,1.000,1.000,-90.00,180.00,180.00,OPEN,0
553129.791,1,0,0,1.000,1.000,1.000,-90.00,180.00,180.00,OPEN,0
553129.842,1,0,0,1.000,1.000,1.000,-90.00,180.00,180.00,OPEN,0
553129.892,1,0,0,1.000,1.000,1.000,-90.00,180.00,180.00,OPEN,0
553129.943,1,0,0,1.000,1.000,1.000,-90.00,180.00,180.00,OPEN,0
553129.993,1,0,0,1.000,1.000,1.000,-90.00,180.00,180.00,OPEN,0
553130.044,1,0,0,1.000,1.000,1.000,-90.00,180.00,180.00,OPEN,0
553130.095,1,0,0,1.000,1.000,1.000,-90.00,180.00,180.00,OPEN,0
553130.146,1,0,0,1.000,1.000,1.000,-90.00,180.00,180.00,OPEN,0
553130.197,1,0,0,1.000,1.000,1.000,-90.00,180.00,180.00,OPEN,0
553130.247,1,0,0,1.000,1.000,1.000,-90.00,180.00,180.00,OPEN,0
553130.297,1,0,0,1.000,1.000,1.000,-90.00,180.00,180.00,OPEN,0
553130.348,1,0,0,1.000,1.000,1.000,-90.00,180.00,180.00,OPEN,0
553130.399,1,0,0,1.000,1.000,1.000,-90.00,180.00,180.00,OPEN,0
553130.449,1,0,0,1.000,1.000,1.000,-90.00,180.00,180.00,OPEN,0
553130.500,1,0,0,1.000,1.000,1.000,-90.00,180.00,180.00,OPEN,0
553130.550,1,0,0,1.000,1.000,1.000,-90.00,180.00,180.00,OPEN,0
553130.601,1,0,0,1.000,1.000,1.000,-90.00,180.00,180.00,OPEN,0
553130.652,1,0,0,1.000,1.000,1.000,-90.00,180.00,180.00,OPEN,0
553130.702,1,0,0,1.000,1.000,1.000,-90.00,180.00,180.00,OPEN,0
553130.753,1,0,0,1.000,1.000,1.000,-90.00,180.00,180.00,OPEN,0
553130.803,1,0,0,1.000,1.000,1.000,-90.00,180.00,180.00,OPEN,0
553130.854,1,0,0,1.000,1.000,1.000,-90.00,180.00,180.00,OPEN,0
553130.904,1,0,0,1.000,1.000,1.000,-90.00,180.00,180.00,OPEN,0
553130.955,1,0,0,1.000,1.000,1.000,-90.00,180.00,180.00,OPEN,0
553131.006,1,0,0,1.000,1.000,1.000,-90.00,180.00,180.00,OPEN,0
553131.056,1,0,0,1.000,1.000,1.000,-90.00,180.00,180.00,OPEN,0
553131.107,1,0,0,1.000,1.000,1.000,-90.00,180.00,180.00,OPEN,0
553131.158,1,0,0,1.000,1.000,1.000,-90.00,180.00,180.00,OPEN,0
553131.208,1,0,0,1.000,1.000,1.000,-90.00,180.00,180.00,OPEN,0
553131.259,1,0,0,1.000,1.000,1.000,-90.00,180.00,180.00,OPEN,0
553131.309,1,0,0,1.000,1.000,1.000,-90.00,180.00,180.00,OPEN,0
553131.360,1,0,0,1.000,1.000,1.000,-90.00,180.00,180.00,OPEN,0
553131.410,1,0,0,1.000,1.000,1.000,-90.00,180.00,180.00,OPEN,0
553131.461,1,0,0,1.000,1.000,1.000,-90.00,180.00,180.00,OPEN,0
553131.511,1,0,0,1.000,1.000,1.000,-90.00,180.00,180.00,OPEN,0
553131.562,1,0,0,1.000,1.000,1.000,-90.00,180.00,180.00,OPEN,0
553131.613,1,0,0,1.000,1.000,1.000,-90.00,180.00,180.00,OPEN,0
553131.664,1,0,0,1.000,1.000,1.000,-90.00,180.00,180.00,OPEN,0
553131.714,1,0,0,1.000,1.000,1.000,-90.00,180.00,180.00,OPEN,0
553131.764,1,0,0,1.000,1.000,1.000,-90.00,180.00,180.00,OPEN,0
553131.815,1,0,0,1.000,1.000,1.000,-90.00,180.00,180.00,OPEN,0
553131.865,1,0,0,1.000,1.000,1.000,-90.00,180.00,180.00,OPEN,0
553131.916,1,0,0,1.000,1.000,1.000,-90.00,180.00,180.00,OPEN,0
553131.966,1,0,0,1.000,1.000,1.000,-90.00,180.00,180.00,OPEN,0
553132.018,1,0,0,1.000,1.000,1.000,-90.00,180.00,180.00,OPEN,0
553132.068,1,0,0,1.000,1.000,1.000,-90.00,180.00,180.00,OPEN,0
553132.119,1,0,0,1.000,1.000,1.000,-90.00,180.00,180.00,OPEN,0
553132.169,1,0,0,1.000,1.000,1.000,-90.00,180.00,180.00,OPEN,0
553132.219,1,0,0,1.000,1.000,1.000,-90.00,180.00,180.00,OPEN,0
553132.269,1,0,0,1.000,1.000,1.000,-90.00,180.00,180.00,OPEN,0
553132.320,1,0,0,1.000,1.000,1.000,-90.00,180.00,180.00,OPEN,0
553132.370,1,0,0,1.000,1.000,1.000,-90.00,180.00,180.00,OPEN,0
553132.421,1,0,0,1.000,1.000,1.000,-90.00,180.00,180.00,OPEN,0
553132.472,1,0,0,1.000,1.000,1.000,-90.00,180.00,180.00,OPEN,0
553132.522,1,0,0,1.000,1.000,1.000,-90.00,180.00,180.00,OPEN,0
553132.573,1,0,0,1.000,1.000,1.000,-90.00,180.00,180.00,OPEN,0
553132.624,1,0,0,1.000,1.000,1.000,-90.00,180.00,180.00,OPEN,0
553132.674,1,0,0,1.000,1.000,1.000,-90.00,180.00,180.00,OPEN,0
553132.725,1,0,0,1.000,1.000,1.000,-90.00,180.00,180.00,OPEN,0
553132.776,1,0,0,1.000,1.000,1.000,-90.00,180.00,180.00,OPEN,0
553132.826,1,0,0,1.000,1.000,1.000,-90.00,180.00,180.00,OPEN,0
553132.877,1,0,0,1.000,1.000,1.000,-90.00,180.00,180.00,OPEN,0
553132.927,1,0,0,1.000,1.000,1.000,-90.00,180.00,180.00,OPEN,0
553132.978,1,0,0,1.000,1.000,1.000,-90.00,180.00,180.00,OPEN,0
553133.029,1,0,0,1.000,1.000,1.000,-90.00,180.00,180.00,OPEN,0
553133.079,1,0,0,1.000,1.000,1.000,-90.00,180.00,180.00,OPEN,0
553133.130,1,0,0,1.000,1.000,1.000,-90.00,180.00,180.00,OPEN,0
553133.180,1,0,0,1.000,1.000,1.000,-90.00,180.00,180.00,OPEN,0
553133.231,1,0,0,1.000,1.000,1.000,-90.00,180.00,180.00,OPEN,0
553133.281,1,0,0,1.000,1.000,1.000,-90.00,180.00,180.00,OPEN,0
553133.332,1,0,0,1.000,1.000,1.000,-90.00,180.00,180.00,OPEN,0
553133.382,1,0,0,1.000,1.000,1.000,-90.00,180.00,180.00,OPEN,0
553133.433,1,0,0,1.000,1.000,1.000,-90.00,180.00,180.00,OPEN,0
553133.483,1,0,0,1.000,1.000,1.000,-90.00,180.00,180.00,OPEN,0
553133.533,1,0,0,1.000,1.000,1.000,-90.00,180.00,180.00,OPEN,0
553133.584,1,0,0,1.000,1.000,1.000,-90.00,180.00,180.00,OPEN,0
553133.634,1,0,0,1.000,1.000,1.000,-90.00,180.00,180.00,OPEN,0
553133.685,1,0,0,1.000,1.000,1.000,-90.00,180.00,180.00,OPEN,0
553133.735,1,0,0,1.000,1.000,1.000,-90.00,180.00,180.00,OPEN,0
553133.786,1,0,0,1.000,1.000,1.000,-90.00,180.00,180.00,OPEN,0
553133.836,1,0,0,1.000,1.000,1.000,-90.00,180.00,180.00,OPEN,0
553133.887,1,0,0,1.000,1.000,1.000,-90.00,180.00,180.00,OPEN,0
553133.937,1,0,0,1.000,1.000,1.000,-90.00,180.00,180.00,OPEN,0
553133.988,1,0,0,1.000,1.000,1.000,-90.00,180.00,180.00,OPEN,0
553134.038,1,0,0,1.000,1.000,1.000,-90.00,180.00,180.00,OPEN,0
553134.088,1,0,0,1.000,1.000,1.000,-90.00,180.00,180.00,OPEN,0
553134.139,1,0,0,1.000,1.000,1.000,-90.00,180.00,180.00,OPEN,0
553134.189,1,0,0,1.000,1.000,1.000,-90.00,180.00,180.00,OPEN,0
553134.240,1,0,0,1.000,1.000,1.000,-90.00,180.00,180.00,OPEN,0
553134.290,1,0,0,1.000,1.000,1.000,-90.00,180.00,180.00,OPEN,0
553134.341,2,0,0,1.000,1.000,1.000,-90.00,180.00,180.00,OPEN,0
553134.392,2,0,0,1.000,1.000,1.000,-90.00,180.00,175.50,OPEN,1
553134.443,2,0,0,1.000,1.000,1.000,-90.00,180.00,175.50,OPEN,0
553134.494,2,0,0,1.000,1.000,1.000,-90.00,180.00,171.00,OPEN,1
553134.545,2,0,0,1.000,1.000,1.000,-90.00,180.00,171.00,OPEN,0
553134.596,2,0,0,1.000,1.000,1.000,-90.00,180.00,166.50,OPEN,1
553134.648,2,0,0,1.000,1.000,1.000,-90.00,180.00,166.50,OPEN,0
553134.698,2,0,0,1.000,1.000,1.000,-90.00,180.00,162.00,OPEN,1
553134.751,2,0,0,1.000,1.000,1.000,-90.00,180.00,162.00,OPEN,0
553134.802,2,0,0,1.000,1.000,1.000,-90.00,180.00,157.50,OPEN,1
553134.854,2,0,0,1.000,1.000,1.000,-90.00,180.00,157.50,OPEN,0
553134.905,2,0,0,1.000,1.000,1.000,-90.00,180.00,153.00,OPEN,1
553134.958,2,0,0,1.000,1.000,1.000,-90.00,180.00,153.00,OPEN,0
553135.008,2,0,0,1.000,1.000,1.000,-90.00,180.00,148.50,OPEN,1
553135.061,2,0,0,1.000,1.000,1.000,-90.00,180.00,148.50,OPEN,0
553135.111,2,0,0,1.000,1.000,1.000,-90.00,180.00,144.00,OPEN,1
553135.163,2,0,0,1.000,1.000,1.000,-90.00,180.00,144.00,OPEN,0
553135.214,2,0,0,1.000,1.000,1.000,-90.00,180.00,139.50,OPEN,1
553135.265,2,0,0,1.000,1.000,1.000,-90.00,180.00,139.50,OPEN,0
553135.316,2,0,0,1.000,1.000,1.000,-90.00,180.00,135.00,OPEN,1
553135.368,2,0,0,1.000,1.000,1.000,-90.00,180.00,135.00,OPEN,0
553135.419,2,0,0,1.000,1.000,1.000,-90.00,180.00,130.50,OPEN,1
553135.470,2,0,0,1.000,1.000,1.000,-90.00,180.00,130.50,OPEN,0
553135.521,2,0,0,1.000,1.000,1.000,-90.00,180.00,126.00,OPEN,1
553135.573,2,0,0,1.000,1.000,1.000,-90.00,180.00,126.00,OPEN,0
553135.623,2,0,0,1.000,1.000,1.000,-90.00,180.00,121.50,OPEN,1
553135.675,2,0,0,1.000,1.000,1.000,-90.00,180.00,121.50,OPEN,0
553135.726,2,0,0,1.000,1.000,1.000,-90.00,180.00,117.00,OPEN,1
553135.778,2,0,0,1.000,1.000,1.000,-90.00,180.00,117.00,OPEN,0
553135.828,2,0,0,1.000,1.000,1.000,-90.00,180.00,112.50,OPEN,1
553135.881,2,0,0,1.000,1.000,1.000,-90.00,180.00,112.50,OPEN,0
553135.931,2,0,0,1.000,1.000,1.000,-90.00,180.00,108.00,OPEN,1
553135.983,2,0,0,1.000,1.000,1.000,-90.00,180.00,108.00,OPEN,0
553136.034,2,0,0,1.000,1.000,1.000,-90.00,180.00,103.50,OPEN,1
553136.086,2,0,0,1.000,1.000,1.000,-90.00,180.00,103.50,OPEN,0
553136.137,2,0,0,1.000,1.000,1.000,-90.00,180.00,99.00,OPEN,1
553136.188,2,0,0,1.000,1.000,1.000,-90.00,180.00,99.00,OPEN,0
553136.239,2,0,0,1.000,1.000,1.000,-90.00,180.00,94.50,OPEN,1
553136.291,2,0,0,1.000,1.000,1.000,-90.00,180.00,94.50,OPEN,0
553136.342,2,0,0,1.000,1.000,1.000,-90.00,180.00,90.00,OPEN,1
553136.394,2,0,0,1.000,1.000,1.000,-90.00,180.00,90.00,OPEN,0
553136.444,2,0,0,1.000,1.000,1.000,-90.00,180.00,85.50,OPEN,1
553136.497,2,0,0,1.000,1.000,1.000,-90.00,180.00,85.50,OPEN,0
553136.547,2,0,0,1.000,1.000,1.000,-90.00,180.00,81.00,OPEN,1
553136.599,2,0,0,1.000,1.000,1.000,-90.00,180.00,81.00,OPEN,0
553136.649,2,0,0,1.000,1.000,1.000,-90.00,180.00,76.50,OPEN,1
553136.702,2,0,0,1.000,1.000,1.000,-90.00,180.00,76.50,OPEN,0
553136.753,2,0,0,1.000,1.000,1.000,-90.00,180.00,72.00,OPEN,1
553136.805,2,0,0,1.000,1.000,1.000,-90.00,180.00,72.00,OPEN,0
553136.855,2,0,0,1.000,1.000,1.000,-90.00,180.00,67.50,OPEN,1
553136.907,2,0,0,1.000,1.000,1.000,-90.00,180.00,67.50,OPEN,0
553136.958,2,0,0,1.000,1.000,1.000,-90.00,180.00,63.00,OPEN,1
553137.011,2,0,0,1.000,1.000,1.000,-90.00,180.00,63.00,OPEN,0
553137.062,2,0,0,1.000,1.000,1.000,-90.00,180.00,58.50,OPEN,1
553137.114,2,0,0,1.000,1.000,1.000,-90.00,180.00,58.50,OPEN,0
553137.165,2,0,0,1.000,1.000,1.000,-90.00,180.00,54.00,OPEN,1
553137.217,2,0,0,1.000,1.000,1.000,-90.00,180.00,54.00,OPEN,0
553137.268,2,0,0,1.000,1.000,1.000,-90.00,180.00,49.50,OPEN,1
553137.320,2,0,0,1.000,1.000,1.000,-90.00,180.00,49.50,OPEN,0
553137.370,2,0,0,1.000,1.000,1.000,-90.00,180.00,45.00,OPEN,1
553137.423,2,0,0,1.000,1.000,1.000,-90.00,180.00,45.00,OPEN,0
553137.473,2,0,0,1.000,1.000,1.000,-90.00,180.00,40.50,OPEN,1
553137.525,2,0,0,1.000,1.000,1.000,-90.00,180.00,40.50,OPEN,0
553137.575,2,0,0,1.000,1.000,1.000,-90.00,180.00,36.00,OPEN,1
553137.627,2,0,0,1.000,1.000,1.000,-90.00,180.00,36.00,OPEN,0
553137.678,2,0,0,1.000,1.000,1.000,-90.00,180.00,31.50,OPEN,1
553137.730,2,0,0,1.000,1.000,1.000,-90.00,180.00,31.50,OPEN,0
553137.780,2,0,0,1.000,1.000,1.000,-90.00,180.00,27.00,OPEN,1
553137.832,2,0,0,1.000,1.000,1.000,-90.00,180.00,27.00,OPEN,0
553137.882,2,0,0,1.000,1.000,1.000,-90.00,180.00,22.50,OPEN,1
553137.934,2,0,0,1.000,1.000,1.000,-90.00,180.00,22.50,OPEN,0
553137.984,2,0,0,1.000,1.000,1.000,-90.00,180.00,18.00,OPEN,1
553138.036,2,0,0,1.000,1.000,1.000,-90.00,180.00,18.00,OPEN,0
553138.087,2,0,0,1.000,1.000,1.000,-90.00,180.00,13.50,OPEN,1
553138.139,2,0,0,1.000,1.000,1.000,-90.00,180.00,13.50,OPEN,0
553138.189,2,0,0,1.000,1.000,1.000,-90.00,180.00,9.00,OPEN,1
553138.241,2,0,0,1.000,1.000,1.000,-90.00,180.00,9.00,OPEN,0
553138.292,2,0,0,1.000,1.000,1.000,-90.00,180.00,4.50,OPEN,1
553138.344,2,0,0,1.000,1.000,1.000,-90.00,180.00,4.50,OPEN,0
553138.395,2,0,0,1.000,1.000,1.000,-90.00,180.00,0.00,OPEN,1
553138.447,2,0,0,1.000,1.000,1.000,-90.00,180.00,0.00,OPEN,0
553138.498,2,0,0,1.000,1.000,1.000,-90.00,180.00,-4.50,OPEN,1
553138.550,2,0,0,1.000,1.000,1.000,-90.00,180.00,-4.50,OPEN,0
553138.601,2,0,0,1.000,1.000,1.000,-90.00,180.00,-9.00,OPEN,1
553138.653,2,0,0,1.000,1.000,1.000,-90.00,180.00,-9.00,OPEN,0
553138.704,2,0,0,1.000,1.000,1.000,-90.00,180.00,-13.50,OPEN,1
553138.755,2,0,0,1.000,1.000,1.000,-90.00,180.00,-13.50,OPEN,0
553138.806,2,0,0,1.000,1.000,1.000,-90.00,180.00,-18.00,OPEN,1
553138.858,2,0,0,1.000,1.000,1.000,-90.00,180.00,-18.00,OPEN,0
553138.910,2,0,0,1.000,1.000,1.000,-90.00,180.00,-22.50,OPEN,1
553138.961,2,0,0,1.000,1.000,1.000,-90.00,180.00,-22.50,OPEN,0
553139.012,2,0,0,1.000,1.000,1.000,-90.00,180.00,-27.00,OPEN,1
553139.064,2,0,0,1.000,1.000,1.000,-90.00,180.00,-27.00,OPEN,0
553139.115,2,0,0,1.000,1.000,1.000,-90.00,180.00,-31.50,OPEN,1
553139.167,2,0,0,1.000,1.000,1.000,-90.00,180.00,-31.50,OPEN,0
553139.218,2,0,0,1.000,1.000,1.000,-90.00,180.00,-36.00,OPEN,1
553139.270,2,0,0,1.000,1.000,1.000,-90.00,180.00,-36.00,OPEN,0
553139.321,2,0,0,1.000,1.000,1.000,-90.00,180.00,-40.50,OPEN,1
553139.374,2,0,0,1.000,1.000,1.000,-90.00,180.00,-40.50,OPEN,0
553139.425,2,0,0,1.000,1.000,1.000,-90.00,180.00,-45.00,OPEN,1
553139.477,2,0,0,1.000,1.000,1.000,-90.00,180.00,-45.00,OPEN,0
553139.528,2,0,0,1.000,1.000,1.000,-90.00,180.00,-49.50,OPEN,1
553139.580,2,0,0,1.000,1.000,1.000,-90.00,180.00,-49.50,OPEN,0
553139.631,2,0,0,1.000,1.000,1.000,-90.00,180.00,-54.00,OPEN,1
553139.684,2,0,0,1.000,1.000,1.000,-90.00,180.00,-54.00,OPEN,0
553139.734,2,0,0,1.000,1.000,1.000,-90.00,180.00,-58.50,OPEN,1
553139.786,2,0,0,1.000,1.000,1.000,-90.00,180.00,-58.50,OPEN,0
553139.836,2,0,0,1.000,1.000,1.000,-90.00,180.00,-63.00,OPEN,1
553139.888,2,0,0,1.000,1.000,1.000,-90.00,180.00,-63.00,OPEN,0
553139.939,2,0,0,1.000,1.000,1.000,-90.00,180.00,-67.50,OPEN,1
553139.992,2,0,0,1.000,1.000,1.000,-90.00,180.00,-67.50,OPEN,0
553140.042,2,0,0,1.000,1.000,1.000,-90.00,180.00,-72.00,OPEN,1
553140.095,2,0,0,1.000,1.000,1.000,-90.00,180.00,-72.00,OPEN,0
553140.145,2,0,0,1.000,1.000,1.000,-90.00,180.00,-76.50,OPEN,1
553140.198,2,0,0,1.000,1.000,1.000,-90.00,180.00,-76.50,OPEN,0
553140.249,2,0,0,1.000,1.000,1.000,-90.00,180.00,-81.00,OPEN,1
553140.301,2,0,0,1.000,1.000,1.000,-90.00,180.00,-81.00,OPEN,0
553140.352,2,0,0,1.000,1.000,1.000,-90.00,180.00,-85.50,OPEN,1
553140.405,2,0,0,1.000,1.000,1.000,-90.00,180.00,-85.50,OPEN,0
553140.455,2,0,0,1.000,1.000,1.000,-90.00,180.00,-90.00,OPEN,1
553140.508,2,0,0,1.000,1.000,1.000,-90.00,180.00,-90.00,OPEN,0
553140.559,2,0,0,1.000,1.000,1.000,-90.00,180.00,-94.50,OPEN,1
553140.611,2,0,0,1.000,1.000,1.000,-90.00,180.00,-94.50,OPEN,0
553140.661,2,0,0,1.000,1.000,1.000,-90.00,180.00,-99.00,OPEN,1
553140.713,2,0,0,1.000,1.000,1.000,-90.00,180.00,-99.00,OPEN,0
553140.764,2,0,0,1.000,1.000,1.000,-90.00,180.00,-103.50,OPEN,1
553140.816,2,0,0,1.000,1.000,1.000,-90.00,180.00,-103.50,OPEN,0
553140.866,2,0,0,1.000,1.000,1.000,-90.00,180.00,-108.00,OPEN,1
553140.918,2,0,0,1.000,1.000,1.000,-90.00,180.00,-108.00,OPEN,0
553140.969,2,0,0,1.000,1.000,1.000,-90.00,180.00,-112.50,OPEN,1
553141.021,2,0,0,1.000,1.000,1.000,-90.00,180.00,-112.50,OPEN,0
553141.072,2,0,0,1.000,1.000,1.000,-90.00,180.00,-117.00,OPEN,1
553141.124,2,0,0,1.000,1.000,1.000,-90.00,180.00,-117.00,OPEN,0
553141.175,2,0,0,1.000,1.000,1.000,-90.00,180.00,-121.50,OPEN,1
553141.227,2,0,0,1.000,1.000,1.000,-90.00,180.00,-121.50,OPEN,0
553141.277,2,0,0,1.000,1.000,1.000,-90.00,180.00,-126.00,OPEN,1
553141.330,2,0,0,1.000,1.000,1.000,-90.00,180.00,-126.00,OPEN,0
553141.380,2,0,0,1.000,1.000,1.000,-90.00,180.00,-130.50,OPEN,1
553141.433,2,0,0,1.000,1.000,1.000,-90.00,180.00,-130.50,OPEN,0
553141.483,2,0,0,1.000,1.000,1.000,-90.00,180.00,-135.00,OPEN,1
553141.535,2,0,0,1.000,1.000,1.000,-90.00,180.00,-135.00,OPEN,0
553141.586,2,0,0,1.000,1.000,1.000,-90.00,180.00,-139.50,OPEN,1
553141.638,2,0,0,1.000,1.000,1.000,-90.00,180.00,-139.50,OPEN,0
553141.688,2,0,0,1.000,1.000,1.000,-90.00,180.00,-144.00,OPEN,1
553141.741,2,0,0,1.000,1.000,1.000,-90.00,180.00,-144.00,OPEN,0
553141.791,2,0,0,1.000,1.000,1.000,-90.00,180.00,-148.50,OPEN,1
553141.844,2,0,0,1.000,1.000,1.000,-90.00,180.00,-148.50,OPEN,0
553141.894,2,0,0,1.000,1.000,1.000,-90.00,180.00,-153.00,OPEN,1
553141.946,2,0,0,1.000,1.000,1.000,-90.00,180.00,-153.00,OPEN,0
553141.997,2,0,0,1.000,1.000,1.000,-90.00,180.00,-157.50,OPEN,1
553142.049,2,0,0,1.000,1.000,1.000,-90.00,180.00,-157.50,OPEN,0
553142.099,2,0,0,1.000,1.000,1.000,-90.00,180.00,-162.00,OPEN,1
553142.151,2,0,0,1.000,1.000,1.000,-90.00,180.00,-162.00,OPEN,0
553142.202,2,0,0,1.000,1.000,1.000,-90.00,180.00,-166.50,OPEN,1
553142.254,2,0,0,1.000,1.000,1.000,-90.00,180.00,-166.50,OPEN,0
553142.305,2,0,0,1.000,1.000,1.000,-90.00,180.00,-171.00,OPEN,1
553142.357,2,0,0,1.000,1.000,1.000,-90.00,180.00,-171.00,OPEN,0
553142.408,2,0,0,1.000,1.000,1.000,-90.00,180.00,-175.50,OPEN,1
553142.460,2,0,0,1.000,1.000,1.000,-90.00,180.00,-175.50,OPEN,0
553142.510,2,0,0,1.000,1.000,1.000,-90.00,180.00,-180.00,OPEN,1
553142.564,2,0,0,1.000,1.000,1.000,-90.00,180.00,-180.00,OPEN,0
553142.614,2,0,0,1.000,1.000,1.000,-90.00,180.00,-180.00,OPEN,0
553142.665,2,0,0,1.000,1.000,1.000,-90.00,180.00,-180.00,OPEN,0
553142.715,2,0,0,1.000,1.000,1.000,-90.00,180.00,-180.00,OPEN,0
553142.766,2,0,0,1.000,1.000,1.000,-90.00,180.00,-180.00,OPEN,0
553142.817,2,0,0,1.000,1.000,1.000,-90.00,180.00,-180.00,OPEN,0
553142.867,2,0,0,1.000,1.000,1.000,-90.00,180.00,-180.00,OPEN,0
553142.917,2,0,0,1.000,1.000,1.000,-90.00,180.00,-180.00,OPEN,0
553142.968,2,0,0,1.000,1.000,1.000,-90.00,180.00,-180.00,OPEN,0
553143.019,2,0,0,1.000,1.000,1.000,-90.00,180.00,-180.00,OPEN,0
553143.069,2,0,0,1.000,1.000,1.000,-90.00,180.00,-180.00,OPEN,0
553143.120,2,0,0,1.000,1.000,1.000,-90.00,180.00,-180.00,OPEN,0
553143.170,2,0,0,1.000,1.000,1.000,-90.00,180.00,-180.00,OPEN,0
553143.222,2,0,0,1.000,1.000,1.000,-90.00,180.00,-180.00,OPEN,0
553143.272,2,0,0,1.000,1.000,1.000,-90.00,180.00,-180.00,OPEN,0
553143.323,2,0,0,1.000,1.000,1.000,-90.00,180.00,-180.00,OPEN,0
553143.373,2,0,0,1.000,1.000,1.000,-90.00,180.00,-180.00,OPEN,0
553143.424,2,0,0,1.000,1.000,1.000,-90.00,180.00,-180.00,OPEN,0
553143.475,2,0,0,1.000,1.000,1.000,-90.00,180.00,-180.00,OPEN,0
553143.526,2,0,0,1.000,1.000,1.000,-90.00,180.00,-180.00,OPEN,0
553143.576,2,0,0,1.000,1.000,1.000,-90.00,180.00,-180.00,OPEN,0
553143.627,2,0,0,1.000,1.000,1.000,-90.00,180.00,-180.00,OPEN,0
553143.678,2,0,0,1.000,1.000,1.000,-90.00,180.00,-180.00,OPEN,0
553143.729,2,0,0,1.000,1.000,1.000,-90.00,180.00,-180.00,OPEN,0
553143.780,2,0,0,1.000,1.000,1.000,-90.00,180.00,-180.00,OPEN,0
553143.831,2,0,0,1.000,1.000,1.000,-90.00,180.00,-180.00,OPEN,0
553143.881,2,0,0,1.000,1.000,1.000,-90.00,180.00,-180.00,OPEN,0
553143.931,2,0,0,1.000,1.000,1.000,-90.00,180.00,-180.00,OPEN,0
553143.982,2,0,0,1.000,1.000,1.000,-90.00,180.00,-180.00,OPEN,0
553144.032,2,0,0,1.000,1.000,1.000,-90.00,180.00,-180.00,OPEN,0
553144.083,2,0,0,1.000,1.000,1.000,-90.00,180.00,-180.00,OPEN,0
553144.133,2,0,0,1.000,1.000,1.000,-90.00,180.00,-180.00,OPEN,0
553144.184,2,0,0,1.000,1.000,1.000,-90.00,180.00,-180.00,OPEN,0
553144.235,2,0,0,1.000,1.000,1.000,-90.00,180.00,-180.00,OPEN,0
553144.285,2,0,0,1.000,1.000,1.000,-90.00,180.00,-180.00,OPEN,0
553144.336,2,0,0,1.000,1.000,1.000,-90.00,180.00,-180.00,OPEN,0
553144.386,2,0,0,1.000,1.000,1.000,-90.00,180.00,-180.00,OPEN,0
553144.437,2,0,0,1.000,1.000,1.000,-90.00,180.00,-180.00,OPEN,0
553144.488,2,0,0,1.000,1.000,1.000,-90.00,180.00,-180.00,OPEN,0
553144.538,2,0,0,1.000,1.000,1.000,-90.00,180.00,-180.00,OPEN,0
553144.589,2,0,0,1.000,1.000,1.000,-90.00,180.00,-180.00,OPEN,0
553144.640,2,0,0,1.000,1.000,1.000,-90.00,180.00,-180.00,OPEN,0
553144.691,2,0,0,1.000,1.000,1.000,-90.00,180.00,-180.00,OPEN,0
553144.741,2,0,0,1.000,1.000,1.000,-90.00,180.00,-180.00,OPEN,0
553144.792,2,0,0,1.000,1.000,1.000,-90.00,180.00,-180.00,OPEN,0
553144.843,2,0,0,1.000,1.000,1.000,-90.00,180.00,-180.00,OPEN,0
553144.894,2,0,0,1.000,1.000,1.000,-90.00,180.00,-180.00,OPEN,0
553144.944,2,0,0,1.000,1.000,1.000,-90.00,180.00,-180.00,OPEN,0
553144.996,2,0,0,1.000,1.000,1.000,-90.00,180.00,-180.00,OPEN,0
553145.046,2,0,0,1.000,1.000,1.000,-90.00,180.00,-180.00,OPEN,0
553145.097,2,0,0,1.000,1.000,1.000,-90.00,180.00,-180.00,OPEN,0
553145.147,2,0,0,1.000,1.000,1.000,-90.00,180.00,-180.00,OPEN,0
553145.198,2,0,0,1.000,1.000,1.000,-90.00,180.00,-180.00,OPEN,0
553145.248,2,0,0,1.000,1.000,1.000,-90.00,180.00,-180.00,OPEN,0
553145.299,2,0,0,1.000,1.000,1.000,-90.00,180.00,-180.00,OPEN,0
553145.349,1,0,0,1.000,1.000,1.000,-90.00,180.00,-175.50,OPEN,1
553145.402,1,0,0,1.000,1.000,1.000,-90.00,180.00,-175.50,OPEN,0
553145.452,1,0,0,1.000,1.000,1.000,-90.00,180.00,-171.00,OPEN,1
553145.504,1,0,0,1.000,1.000,1.000,-90.00,180.00,-171.00,OPEN,0
553145.555,1,0,0,1.000,1.000,1.000,-90.00,180.00,-166.50,OPEN,1
553145.607,1,0,0,1.000,1.000,1.000,-90.00,180.00,-166.50,OPEN,0
553145.658,1,0,0,1.000,1.000,1.000,-90.00,180.00,-162.00,OPEN,1
553145.711,1,0,0,1.000,1.000,1.000,-90.00,180.00,-162.00,OPEN,0
553145.762,1,0,0,1.000,1.000,1.000,-90.00,180.00,-157.50,OPEN,1
553145.814,1,0,0,1.000,1.000,1.000,-90.00,180.00,-157.50,OPEN,0
553145.865,1,0,0,1.000,1.000,1.000,-90.00,180.00,-153.00,OPEN,1
553145.917,1,0,0,1.000,1.000,1.000,-90.00,180.00,-153.00,OPEN,0
553145.967,1,0,0,1.000,1.000,1.000,-90.00,180.00,-148.50,OPEN,1
553146.019,1,0,0,1.000,1.000,1.000,-90.00,180.00,-148.50,OPEN,0
553146.070,1,0,0,1.000,1.000,1.000,-90.00,180.00,-144.00,OPEN,1
553146.122,1,0,0,1.000,1.000,1.000,-90.00,180.00,-144.00,OPEN,0
553146.173,1,0,0,1.000,1.000,1.000,-90.00,180.00,-139.50,OPEN,1
553146.225,1,0,0,1.000,1.000,1.000,-90.00,180.00,-139.50,OPEN,0
553146.275,1,0,0,1.000,1.000,1.000,-90.00,180.00,-135.00,OPEN,1
553146.327,1,0,0,1.000,1.000,1.000,-90.00,180.00,-135.00,OPEN,0
553146.377,1,0,0,1.000,1.000,1.000,-90.00,180.00,-130.50,OPEN,1
553146.429,1,0,0,1.000,1.000,1.000,-90.00,180.00,-130.50,OPEN,0
553146.480,1,0,0,1.000,1.000,1.000,-90.00,180.00,-126.00,OPEN,1
553146.533,1,0,0,1.000,1.000,1.000,-90.00,180.00,-126.00,OPEN,0
553146.583,1,0,0,1.000,1.000,1.000,-90.00,180.00,-121.50,OPEN,1
553146.635,1,0,0,1.000,1.000,1.000,-90.00,180.00,-121.50,OPEN,0
553146.686,1,0,0,1.000,1.000,1.000,-90.00,180.00,-117.00,OPEN,1
553146.738,1,0,0,1.000,1.000,1.000,-90.00,180.00,-117.00,OPEN,0
553146.789,1,0,0,1.000,1.000,1.000,-90.00,180.00,-112.50,OPEN,1
553146.842,1,0,0,1.000,1.000,1.000,-90.00,180.00,-112.50,OPEN,0
553146.892,1,0,0,1.000,1.000,1.000,-90.00,180.00,-108.00,OPEN,1
553146.945,1,0,0,1.000,1.000,1.000,-90.00,180.00,-108.00,OPEN,0
553146.996,1,0,0,1.000,1.000,1.000,-90.00,180.00,-103.50,OPEN,1
553147.049,1,0,0,1.000,1.000,1.000,-90.00,180.00,-103.50,OPEN,0
553147.099,1,0,0,1.000,1.000,1.000,-90.00,180.00,-99.00,OPEN,1
553147.152,1,0,0,1.000,1.000,1.000,-90.00,180.00,-99.00,OPEN,0
553147.203,1,0,0,1.000,1.000,1.000,-90.00,180.00,-94.50,OPEN,1
553147.255,1,0,0,1.000,1.000,1.000,-90.00,180.00,-94.50,OPEN,0
553147.305,1,0,0,1.000,1.000,1.000,-90.00,180.00,-90.00,OPEN,1
553147.358,1,0,0,1.000,1.000,1.000,-90.00,180.00,-90.00,OPEN,0
553147.408,1,0,0,1.000,1.000,1.000,-90.00,180.00,-85.50,OPEN,1
553147.460,1,0,0,1.000,1.000,1.000,-90.00,180.00,-85.50,OPEN,0
553147.511,1,0,0,1.000,1.000,1.000,-90.00,180.00,-81.00,OPEN,1
553147.562,1,0,0,1.000,1.000,1.000,-90.00,180.00,-81.00,OPEN,0
553147.613,1,0,0,1.000,1.000,1.000,-90.00,180.00,-76.50,OPEN,1
553147.665,1,0,0,1.000,1.000,1.000,-90.00,180.00,-76.50,OPEN,0
553147.716,1,0,0,1.000,1.000,1.000,-90.00,180.00,-72.00,OPEN,1
553147.768,1,0,0,1.000,1.000,1.000,-90.00,180.00,-72.00,OPEN,0
553147.819,1,0,0,1.000,1.000,1.000,-90.00,180.00,-67.50,OPEN,1
553147.872,1,0,0,1.000,1.000,1.000,-90.00,180.00,-67.50,OPEN,0
553147.922,1,0,0,1.000,1.000,1.000,-90.00,180.00,-63.00,OPEN,1
553147.975,1,0,0,1.000,1.000,1.000,-90.00,180.00,-63.00,OPEN,0
553148.025,1,0,0,1.000,1.000,1.000,-90.00,180.00,-58.50,OPEN,1
553148.078,1,0,0,1.000,1.000,1.000,-90.00,180.00,-58.50,OPEN,0
553148.129,1,0,0,1.000,1.000,1.000,-90.00,180.00,-54.00,OPEN,1
553148.181,1,0,0,1.000,1.000,1.000,-90.00,180.00,-54.00,OPEN,0
553148.232,1,0,0,1.000,1.000,1.000,-90.00,180.00,-49.50,OPEN,1
553148.284,1,0,0,1.000,1.000,1.000,-90.00,180.00,-49.50,OPEN,0
553148.334,1,0,0,1.000,1.000,1.000,-90.00,180.00,-45.00,OPEN,1
553148.387,1,0,0,1.000,1.000,1.000,-90.00,180.00,-45.00,OPEN,0
553148.437,1,0,0,1.000,1.000,1.000,-90.00,180.00,-40.50,OPEN,1
553148.488,1,0,0,1.000,1.000,1.000,-90.00,180.00,-40.50,OPEN,0
553148.539,1,0,0,1.000,1.000,1.000,-90.00,180.00,-36.00,OPEN,1
553148.591,1,0,0,1.000,1.000,1.000,-90.00,180.00,-36.00,OPEN,0
553148.642,1,0,0,1.000,1.000,1.000,-90.00,180.00,-31.50,OPEN,1
553148.694,1,0,0,1.000,1.000,1.000,-90.00,180.00,-31.50,OPEN,0
553148.744,1,0,0,1.000,1.000,1.000,-90.00,180.00,-27.00,OPEN,1
553148.796,1,0,0,1.000,1.000,1.000,-90.00,180.00,-27.00,OPEN,0
553148.847,1,0,0,1.000,1.000,1.000,-90.00,180.00,-22.50,OPEN,1
553148.899,1,0,0,1.000,1.000,1.000,-90.00,180.00,-22.50,OPEN,0
553148.949,1,0,0,1.000,1.000,1.000,-90.00,180.00,-18.00,OPEN,1
553149.001,1,0,0,1.000,1.000,1.000,-90.00,180.00,-18.00,OPEN,0
553149.051,2,0,0,1.000,1.000,1.000,-90.00,180.00,-22.50,OPEN,1
553149.104,2,0,0,1.000,1.000,1.000,-90.00,180.00,-22.50,OPEN,0
553149.155,2,0,0,1.000,1.000,1.000,-90.00,180.00,-27.00,OPEN,1
553149.208,2,0,0,1.000,1.000,1.000,-90.00,180.00,-27.00,OPEN,0
553149.258,2,0,0,1.000,1.000,1.000,-90.00,180.00,-31.50,OPEN,1
553149.313,2,0,0,1.000,1.000,1.000,-90.00,180.00,-31.50,OPEN,0
553149.364,2,0,0,1.000,1.000,1.000,-90.00,180.00,-36.00,OPEN,1
553149.416,2,0,0,1.000,1.000,1.000,-90.00,180.00,-36.00,OPEN,0
553149.467,2,0,0,1.000,1.000,1.000,-90.00,180.00,-40.50,OPEN,1
553149.519,2,0,0,1.000,1.000,1.000,-90.00,180.00,-40.50,OPEN,0
553149.570,2,0,0,1.000,1.000,1.000,-90.00,180.00,-45.00,OPEN,1
553149.621,2,0,0,1.000,1.000,1.000,-90.00,180.00,-45.00,OPEN,0
553149.672,2,0,0,1.000,1.000,1.000,-90.00,180.00,-49.50,OPEN,1
553149.724,2,0,0,1.000,1.000,1.000,-90.00,180.00,-49.50,OPEN,0
553149.775,2,0,0,1.000,1.000,1.000,-90.00,180.00,-54.00,OPEN,1
553149.828,2,0,0,1.000,1.000,1.000,-90.00,180.00,-54.00,OPEN,0
553149.878,2,0,0,1.000,1.000,1.000,-90.00,180.00,-58.50,OPEN,1
553149.929,2,0,0,1.000,1.000,1.000,-90.00,180.00,-58.50,OPEN,0
553149.980,2,0,0,1.000,1.000,1.000,-90.00,180.00,-63.00,OPEN,1
553150.032,2,0,0,1.000,1.000,1.000,-90.00,180.00,-63.00,OPEN,0
553150.082,2,0,0,1.000,1.000,1.000,-90.00,180.00,-67.50,OPEN,1
553150.134,2,0,0,1.000,1.000,1.000,-90.00,180.00,-67.50,OPEN,0
553150.184,2,0,0,1.000,1.000,1.000,-90.00,180.00,-72.00,OPEN,1
553150.237,2,0,0,1.000,1.000,1.000,-90.00,180.00,-72.00,OPEN,0
553150.287,2,0,0,1.000,1.000,1.000,-90.00,180.00,-76.50,OPEN,1
553150.340,2,0,0,1.000,1.000,1.000,-90.00,180.00,-76.50,OPEN,0
553150.391,2,0,0,1.000,1.000,1.000,-90.00,180.00,-81.00,OPEN,1
553150.442,2,0,0,1.000,1.000,1.000,-90.00,180.00,-81.00,OPEN,0
553150.493,2,0,0,1.000,1.000,1.000,-90.00,180.00,-85.50,OPEN,1
553150.544,2,0,0,1.000,1.000,1.000,-90.00,180.00,-85.50,OPEN,0
553150.595,2,0,0,1.000,1.000,1.000,-90.00,180.00,-90.00,OPEN,1
553150.647,2,0,0,1.000,1.000,1.000,-90.00,180.00,-90.00,OPEN,0
553150.697,2,0,0,1.000,1.000,1.000,-90.00,180.00,-94.50,OPEN,1
553150.750,2,0,0,1.000,1.000,1.000,-90.00,180.00,-94.50,OPEN,0
553150.800,2,0,0,1.000,1.000,1.000,-90.00,180.00,-99.00,OPEN,1
553150.852,2,0,0,1.000,1.000,1.000,-90.00,180.00,-99.00,OPEN,0
553150.903,2,0,0,1.000,1.000,1.000,-90.00,180.00,-103.50,OPEN,1
553150.955,2,0,0,1.000,1.000,1.000,-90.00,180.00,-103.50,OPEN,0
553151.006,2,0,0,1.000,1.000,1.000,-90.00,180.00,-108.00,OPEN,1
553151.058,2,0,0,1.000,1.000,1.000,-90.00,180.00,-108.00,OPEN,0
553151.109,2,0,0,1.000,1.000,1.000,-90.00,180.00,-112.50,OPEN,1
553151.161,2,0,0,1.000,1.000,1.000,-90.00,180.00,-112.50,OPEN,0
553151.212,2,0,0,1.000,1.000,1.000,-90.00,180.00,-117.00,OPEN,1
553151.265,2,0,0,1.000,1.000,1.000,-90.00,180.00,-117.00,OPEN,0
553151.315,2,0,0,1.000,1.000,1.000,-90.00,180.00,-121.50,OPEN,1
553151.368,2,0,0,1.000,1.000,1.000,-90.00,180.00,-121.50,OPEN,0
553151.418,2,0,0,1.000,1.000,1.000,-90.00,180.00,-126.00,OPEN,1
553151.470,2,0,0,1.000,1.000,1.000,-90.00,180.00,-126.00,OPEN,0
553151.521,2,0,0,1.000,1.000,1.000,-90.00,180.00,-130.50,OPEN,1
553151.574,2,0,0,1.000,1.000,1.000,-90.00,180.00,-130.50,OPEN,0
553151.624,2,0,0,1.000,1.000,1.000,-90.00,180.00,-135.00,OPEN,1
553151.677,2,0,0,1.000,1.000,1.000,-90.00,180.00,-135.00,OPEN,0
553151.727,2,0,0,1.000,1.000,1.000,-90.00,180.00,-139.50,OPEN,1
553151.779,2,0,0,1.000,1.000,1.000,-90.00,180.00,-139.50,OPEN,0
553151.829,2,0,0,1.000,1.000,1.000,-90.00,180.00,-144.00,OPEN,1
553151.881,2,0,0,1.000,1.000,1.000,-90.00,180.00,-144.00,OPEN,0
553151.931,2,0,0,1.000,1.000,1.000,-90.00,180.00,-148.50,OPEN,1
553151.984,2,0,0,1.000,1.000,1.000,-90.00,180.00,-148.50,OPEN,0
553152.035,2,0,0,1.000,1.000,1.000,-90.00,180.00,-153.00,OPEN,1
553152.087,2,0,0,1.000,1.000,1.000,-90.00,180.00,-153.00,OPEN,0
553152.137,2,0,0,1.000,1.000,1.000,-90.00,180.00,-157.50,OPEN,1
553152.189,2,0,0,1.000,1.000,1.000,-90.00,180.00,-157.50,OPEN,0
553152.240,2,0,0,1.000,1.000,1.000,-90.00,180.00,-162.00,OPEN,1
553152.292,2,0,0,1.000,1.000,1.000,-90.00,180.00,-162.00,OPEN,0
553152.343,2,0,0,1.000,1.000,1.000,-90.00,180.00,-166.50,OPEN,1
553152.395,2,0,0,1.000,1.000,1.000,-90.00,180.00,-166.50,OPEN,0
553152.446,2,0,0,1.000,1.000,1.000,-90.00,180.00,-171.00,OPEN,1
553152.498,2,0,0,1.000,1.000,1.000,-90.00,180.00,-171.00,OPEN,0
553152.549,2,0,0,1.000,1.000,1.000,-90.00,180.00,-175.50,OPEN,1
553152.601,2,0,0,1.000,1.000,1.000,-90.00,180.00,-175.50,OPEN,0
553152.651,2,0,0,1.000,1.000,1.000,-90.00,180.00,-180.00,OPEN,1
553152.704,2,0,0,1.000,1.000,1.000,-90.00,180.00,-180.00,OPEN,0
553152.755,2,0,0,1.000,1.000,1.000,-90.00,180.00,-180.00,OPEN,0
553152.805,2,0,0,1.000,1.000,1.000,-90.00,180.00,-180.00,OPEN,0
553152.856,2,0,0,1.000,1.000,1.000,-90.00,180.00,-180.00,OPEN,0
553152.906,2,0,0,1.000,1.000,1.000,-90.00,180.00,-180.00,OPEN,0
553152.957,2,0,0,1.000,1.000,1.000,-90.00,180.00,-180.00,OPEN,0
553153.008,2,0,0,1.000,1.000,1.000,-90.00,180.00,-180.00,OPEN,0
553153.058,2,0,0,1.000,1.000,1.000,-90.00,180.00,-180.00,OPEN,0
553153.109,2,0,0,1.000,1.000,1.000,-90.00,180.00,-180.00,OPEN,0
553153.160,2,0,0,1.000,1.000,1.000,-90.00,180.00,-180.00,OPEN,0
553153.210,2,0,0,1.000,1.000,1.000,-90.00,180.00,-180.00,OPEN,0
553153.261,2,0,0,1.000,1.000,1.000,-90.00,180.00,-180.00,OPEN,0
553153.312,2,0,0,1.000,1.000,1.000,-90.00,180.00,-180.00,OPEN,0
553153.362,2,0,0,1.000,1.000,1.000,-90.00,180.00,-180.00,OPEN,0
553153.413,2,0,0,1.000,1.000,1.000,-90.00,180.00,-180.00,OPEN,0
553153.463,2,0,0,1.000,1.000,1.000,-90.00,180.00,-180.00,OPEN,0
553153.514,2,0,0,1.000,1.000,1.000,-90.00,180.00,-180.00,OPEN,0
553153.565,2,0,0,1.000,1.000,1.000,-90.00,180.00,-180.00,OPEN,0
553153.615,2,0,0,1.000,1.000,1.000,-90.00,180.00,-180.00,OPEN,0
553153.666,2,0,0,1.000,1.000,1.000,-90.00,180.00,-180.00,OPEN,0
553153.716,2,0,0,1.000,1.000,1.000,-90.00,180.00,-180.00,OPEN,0
553153.767,2,0,0,1.000,1.000,1.000,-90.00,180.00,-180.00,OPEN,0
553153.817,2,0,0,1.000,1.000,1.000,-90.00,180.00,-180.00,OPEN,0
553153.867,2,0,0,1.000,1.000,1.000,-90.00,180.00,-180.00,OPEN,0
553153.918,2,0,0,1.000,1.000,1.000,-90.00,180.00,-180.00,OPEN,0
553153.969,2,0,0,1.000,1.000,1.000,-90.00,180.00,-180.00,OPEN,0
553154.019,2,0,0,1.000,1.000,1.000,-90.00,180.00,-180.00,OPEN,0
553154.070,2,0,0,1.000,1.000,1.000,-90.00,180.00,-180.00,OPEN,0
553154.120,2,0,0,1.000,1.000,1.000,-90.00,180.00,-180.00,OPEN,0
553154.171,2,0,0,1.000,1.000,1.000,-90.00,180.00,-180.00,OPEN,0
553154.221,2,0,0,1.000,1.000,1.000,-90.00,180.00,-180.00,OPEN,0
553154.272,2,0,0,1.000,1.000,1.000,-90.00,180.00,-180.00,OPEN,0
553154.323,2,0,0,1.000,1.000,1.000,-90.00,180.00,-180.00,OPEN,0
553154.373,2,0,0,1.000,1.000,1.000,-90.00,180.00,-180.00,OPEN,0
553154.424,2,0,0,1.000,1.000,1.000,-90.00,180.00,-180.00,OPEN,0
553154.474,2,0,0,1.000,1.000,1.000,-90.00,180.00,-180.00,OPEN,0
553154.525,2,0,0,1.000,1.000,1.000,-90.00,180.00,-180.00,OPEN,0
553154.576,2,0,0,1.000,1.000,1.000,-90.00,180.00,-180.00,OPEN,0
553154.627,2,0,0,1.000,1.000,1.000,-90.00,180.00,-180.00,OPEN,0
553154.677,2,0,0,1.000,1.000,1.000,-90.00,180.00,-180.00,OPEN,0
553154.728,2,0,0,1.000,1.000,1.000,-90.00,180.00,-180.00,OPEN,0
553154.778,2,0,0,1.000,1.000,1.000,-90.00,180.00,-180.00,OPEN,0
553154.829,2,0,0,1.000,1.000,1.000,-90.00,180.00,-180.00,OPEN,0
553154.880,2,0,0,1.000,1.000,1.000,-90.00,180.00,-180.00,OPEN,0
553154.930,2,0,0,1.000,1.000,1.000,-90.00,180.00,-180.00,OPEN,0
553154.980,2,0,0,1.000,1.000,1.000,-90.00,180.00,-180.00,OPEN,0
553155.031,2,0,0,1.000,1.000,1.000,-90.00,180.00,-180.00,OPEN,0
553155.081,2,0,0,1.000,1.000,1.000,-90.00,180.00,-180.00,OPEN,0
553155.132,2,0,0,1.000,1.000,1.000,-90.00,180.00,-180.00,OPEN,0
553155.183,2,0,0,1.000,1.000,1.000,-90.00,180.00,-180.00,OPEN,0
553155.234,2,0,0,1.000,1.000,1.000,-90.00,180.00,-180.00,OPEN,0
553155.285,2,0,0,1.000,1.000,1.000,-90.00,180.00,-180.00,OPEN,0
553155.335,2,0,0,1.000,1.000,1.000,-90.00,180.00,-180.00,OPEN,0
553155.385,2,0,0,1.000,1.000,1.000,-90.00,180.00,-180.00,OPEN,0
553155.436,2,0,0,1.000,1.000,1.000,-90.00,180.00,-180.00,OPEN,0
553155.487,2,0,0,1.000,1.000,1.000,-90.00,180.00,-180.00,OPEN,0
553155.537,2,0,0,1.000,1.000,1.000,-90.00,180.00,-180.00,OPEN,0
553155.588,0,0,0,1.000,1.000,1.000,-90.00,180.00,-180.00,OPEN,0
553155.639,0,0,0,1.000,1.000,1.000,-90.00,180.00,-180.00,OPEN,0
553155.689,0,0,0,1.000,1.000,1.000,-90.00,180.00,-180.00,OPEN,0
553155.740,0,0,0,1.000,1.000,1.000,-90.00,180.00,-180.00,OPEN,0
553155.791,0,0,0,1.000,1.000,1.000,-90.00,180.00,-180.00,OPEN,0
553155.842,0,0,0,1.000,1.000,1.000,-90.00,180.00,-180.00,OPEN,0
553155.893,0,0,0,1.000,1.000,1.000,-90.00,180.00,-180.00,OPEN,0
553155.943,0,0,0,1.000,1.000,1.000,-90.00,180.00,-180.00,OPEN,0
553155.994,0,0,0,1.000,1.000,1.000,-90.00,180.00,-180.00,OPEN,0
553156.044,0,0,0,1.000,1.000,1.000,-90.00,180.00,-180.00,OPEN,0
553156.095,0,0,0,1.000,1.000,1.000,-90.00,180.00,-180.00,OPEN,0
553156.145,0,0,0,1.000,1.000,1.000,-90.00,180.00,-180.00,OPEN,0
553156.195,0,0,0,1.000,1.000,1.000,-90.00,180.00,-180.00,OPEN,0
553156.246,0,0,0,1.000,1.000,1.000,-90.00,180.00,-180.00,OPEN,0
553156.296,0,0,0,1.000,1.000,1.000,-90.00,180.00,-180.00,OPEN,0
553156.347,0,0,0,1.000,1.000,1.000,-90.00,180.00,-180.00,OPEN,0
553156.398,0,0,0,1.000,1.000,1.000,-90.00,180.00,-180.00,OPEN,0
553156.448,0,0,0,1.000,1.000,1.000,-90.00,180.00,-180.00,OPEN,0
553156.499,0,0,0,1.000,1.000,1.000,-90.00,180.00,-180.00,OPEN,0
553156.549,0,0,0,1.000,1.000,1.000,-90.00,180.00,-180.00,OPEN,0
553156.600,0,0,0,1.000,1.000,1.000,-90.00,180.00,-180.00,OPEN,0
553156.651,0,0,0,1.000,1.000,1.000,-90.00,180.00,-180.00,OPEN,0
553156.701,0,0,0,1.000,1.000,1.000,-90.00,180.00,-180.00,OPEN,0
553156.752,0,0,0,1.000,1.000,1.000,-90.00,180.00,-180.00,OPEN,0
553156.802,0,0,0,1.000,1.000,1.000,-90.00,180.00,-180.00,OPEN,0
553156.853,0,0,0,1.000,1.000,1.000,-90.00,180.00,-180.00,OPEN,0
553156.904,0,0,0,1.000,1.000,1.000,-90.00,180.00,-180.00,OPEN,0
553156.954,0,0,0,1.000,1.000,1.000,-90.00,180.00,-180.00,OPEN,0
553157.004,0,0,0,1.000,1.000,1.000,-90.00,180.00,-180.00,OPEN,0
553157.055,0,0,0,1.000,1.000,1.000,-90.00,180.00,-180.00,OPEN,0
553157.106,0,0,0,1.000,1.000,1.000,-90.00,180.00,-180.00,OPEN,0
553157.157,0,0,0,1.000,1.000,1.000,-90.00,180.00,-180.00,OPEN,0
553157.207,0,0,0,1.000,1.000,1.000,-90.00,180.00,-180.00,OPEN,0
553157.258,0,0,0,1.000,1.000,1.000,-90.00,180.00,-180.00,OPEN,0
553157.308,0,0,0,1.000,1.000,1.000,-90.00,180.00,-180.00,OPEN,0
553157.359,0,0,0,1.000,1.000,1.000,-90.00,180.00,-180.00,OPEN,0
553157.409,0,0,0,1.000,1.000,1.000,-90.00,180.00,-180.00,OPEN,0
553157.460,0,0,0,1.000,1.000,1.000,-90.00,180.00,-180.00,OPEN,0
553157.511,0,0,0,1.000,1.000,1.000,-90.00,180.00,-180.00,OPEN,0
553157.562,0,0,0,1.000,1.000,1.000,-90.00,180.00,-180.00,OPEN,0
553157.612,0,0,0,1.000,1.000,1.000,-90.00,180.00,-180.00,OPEN,0
553157.663,0,0,0,1.000,1.000,1.000,-90.00,180.00,-180.00,OPEN,0
553157.713,0,0,0,1.000,1.000,1.000,-90.00,180.00,-180.00,OPEN,0
553157.764,0,0,0,1.000,1.000,1.000,-90.00,180.00,-180.00,OPEN,0
553157.814,0,0,0,1.000,1.000,1.000,-90.00,180.00,-180.00,OPEN,0
553157.865,0,0,0,1.000,1.000,1.000,-90.00,180.00,-180.00,OPEN,0
553157.915,2,0,0,1.000,1.000,1.000,-90.00,180.00,-180.00,OPEN,0
553157.966,2,0,0,1.000,1.000,1.000,-90.00,180.00,-180.00,OPEN,0
553158.017,2,0,0,1.000,1.000,1.000,-90.00,180.00,-180.00,OPEN,0
553158.067,2,0,0,1.000,1.000,1.000,-90.00,180.00,-180.00,OPEN,0
553158.118,2,0,0,1.000,1.000,1.000,-90.00,180.00,-180.00,OPEN,0
553158.169,2,0,0,1.000,1.000,1.000,-90.00,180.00,-180.00,OPEN,0
553158.219,2,0,0,1.000,1.000,1.000,-90.00,180.00,-180.00,OPEN,0
553158.270,2,0,0,1.000,1.000,1.000,-90.00,180.00,-180.00,OPEN,0
553158.320,2,0,0,1.000,1.000,1.000,-90.00,180.00,-180.00,OPEN,0
553158.371,2,0,0,1.000,1.000,1.000,-90.00,180.00,-180.00,OPEN,0
553158.422,2,0,0,1.000,1.000,1.000,-90.00,180.00,-180.00,OPEN,0
553158.472,2,0,0,1.000,1.000,1.000,-90.00,180.00,-180.00,OPEN,0
553158.523,2,0,0,1.000,1.000,1.000,-90.00,180.00,-180.00,OPEN,0
553158.574,2,0,0,1.000,1.000,1.000,-90.00,180.00,-180.00,OPEN,0
553158.624,2,0,0,1.000,1.000,1.000,-90.00,180.00,-180.00,OPEN,0
553158.675,2,0,0,1.000,1.000,1.000,-90.00,180.00,-180.00,OPEN,0
553158.726,2,0,0,1.000,1.000,1.000,-90.00,180.00,-180.00,OPEN,0
553158.776,2,0,0,1.000,1.000,1.000,-90.00,180.00,-180.00,OPEN,0
553158.827,2,0,0,1.000,1.000,1.000,-90.00,180.00,-180.00,OPEN,0
553158.877,2,0,0,1.000,1.000,1.000,-90.00,180.00,-180.00,OPEN,0
553158.928,2,0,0,1.000,1.000,1.000,-90.00,180.00,-180.00,OPEN,0
553158.978,2,0,0,1.000,1.000,1.000,-90.00,180.00,-180.00,OPEN,0
553159.029,2,0,0,1.000,1.000,1.000,-90.00,180.00,-180.00,OPEN,0
553159.079,2,0,0,1.000,1.000,1.000,-90.00,180.00,-180.00,OPEN,0
553159.130,2,0,0,1.000,1.000,1.000,-90.00,180.00,-180.00,OPEN,0
553159.180,2,0,0,1.000,1.000,1.000,-90.00,180.00,-180.00,OPEN,0
553159.231,2,0,0,1.000,1.000,1.000,-90.00,180.00,-180.00,OPEN,0
553159.281,2,0,0,1.000,1.000,1.000,-90.00,180.00,-180.00,OPEN,0
553159.332,2,0,0,1.000,1.000,1.000,-90.00,180.00,-180.00,OPEN,0
553159.382,2,0,0,1.000,1.000,1.000,-90.00,180.00,-180.00,OPEN,0
553159.433,2,0,0,1.000,1.000,1.000,-90.00,180.00,-180.00,OPEN,0
553159.484,2,0,0,1.000,1.000,1.000,-90.00,180.00,-180.00,OPEN,0
553159.534,2,0,0,1.000,1.000,1.000,-90.00,180.00,-180.00,OPEN,0
553159.585,2,0,0,1.000,1.000,1.000,-90.00,180.00,-180.00,OPEN,0
553159.636,2,0,0,1.000,1.000,1.000,-90.00,180.00,-180.00,OPEN,0
553159.687,2,0,0,1.000,1.000,1.000,-90.00,180.00,-180.00,OPEN,0
553159.737,2,0,0,1.000,1.000,1.000,-90.00,180.00,-180.00,OPEN,0
553159.788,2,0,0,1.000,1.000,1.000,-90.00,180.00,-180.00,OPEN,0
553159.838,2,0,0,1.000,1.000,1.000,-90.00,180.00,-180.00,OPEN,0
553159.889,2,0,0,1.000,1.000,1.000,-90.00,180.00,-180.00,OPEN,0
553159.939,2,0,0,1.000,1.000,1.000,-90.00,180.00,-180.00,OPEN,0
553159.990,2,0,0,1.000,1.000,1.000,-90.00,180.00,-180.00,OPEN,0
553160.040,2,0,0,1.000,1.000,1.000,-90.00,180.00,-180.00,OPEN,0
553160.091,2,0,0,1.000,1.000,1.000,-90.00,180.00,-180.00,OPEN,0
553160.141,2,0,0,1.000,1.000,1.000,-90.00,180.00,-180.00,OPEN,0
553160.192,2,0,0,1.000,1.000,1.000,-90.00,180.00,-180.00,OPEN,0
553160.243,2,0,0,1.000,1.000,1.000,-90.00,180.00,-180.00,OPEN,0
553160.294,2,0,0,1.000,1.000,1.000,-90.00,180.00,-180.00,OPEN,0
553160.345,2,0,0,1.000,1.000,1.000,-90.00,180.00,-180.00,OPEN,0
553160.395,2,0,0,1.000,1.000,1.000,-90.00,180.00,-180.00,OPEN,0
553160.446,2,0,0,1.000,1.000,1.000,-90.00,180.00,-180.00,OPEN,0
553160.496,2,0,0,1.000,1.000,1.000,-90.00,180.00,-180.00,OPEN,0
553160.546,2,0,0,1.000,1.000,1.000,-90.00,180.00,-180.00,OPEN,0
553160.597,2,0,0,1.000,1.000,1.000,-90.00,180.00,-180.00,OPEN,0
553160.648,2,0,0,1.000,1.000,1.000,-90.00,180.00,-180.00,OPEN,0
553160.698,2,0,0,1.000,1.000,1.000,-90.00,180.00,-180.00,OPEN,0
553160.749,2,0,0,1.000,1.000,1.000,-90.00,180.00,-180.00,OPEN,0
553160.799,2,0,0,1.000,1.000,1.000,-90.00,180.00,-180.00,OPEN,0
553160.850,2,0,0,1.000,1.000,1.000,-90.00,180.00,-180.00,OPEN,0
553160.900,2,0,0,1.000,1.000,1.000,-90.00,180.00,-180.00,OPEN,0
553160.951,2,0,0,1.000,1.000,1.000,-90.00,180.00,-180.00,OPEN,0
553161.002,2,0,0,1.000,1.000,1.000,-90.00,180.00,-180.00,OPEN,0
553161.052,2,0,0,1.000,1.000,1.000,-90.00,180.00,-180.00,OPEN,0
553161.103,2,0,0,1.000,1.000,1.000,-90.00,180.00,-180.00,OPEN,0
553161.154,2,0,0,1.000,1.000,1.000,-90.00,180.00,-180.00,OPEN,0
553161.205,2,0,0,1.000,1.000,1.000,-90.00,180.00,-180.00,OPEN,0
553161.255,2,0,0,1.000,1.000,1.000,-90.00,180.00,-180.00,OPEN,0
553161.306,2,0,0,1.000,1.000,1.000,-90.00,180.00,-180.00,OPEN,0
553161.357,2,0,0,1.000,1.000,1.000,-90.00,180.00,-180.00,OPEN,0
553161.407,2,0,0,1.000,1.000,1.000,-90.00,180.00,-180.00,OPEN,0
553161.458,2,0,0,1.000,1.000,1.000,-90.00,180.00,-180.00,OPEN,0
553161.509,1,0,0,1.000,1.000,1.000,-90.00,180.00,-180.00,OPEN,0
553161.559,1,0,0,1.000,1.000,1.000,-90.00,180.00,-175.50,OPEN,1
553161.611,1,0,0,1.000,1.000,1.000,-90.00,180.00,-175.50,OPEN,0
553161.662,1,0,0,1.000,1.000,1.000,-90.00,180.00,-171.00,OPEN,1
553161.714,1,0,0,1.000,1.000,1.000,-90.00,180.00,-171.00,OPEN,0
553161.765,1,0,0,1.000,1.000,1.000,-90.00,180.00,-166.50,OPEN,1
553161.817,1,0,0,1.000,1.000,1.000,-90.00,180.00,-166.50,OPEN,0
553161.867,1,0,0,1.000,1.000,1.000,-90.00,180.00,-162.00,OPEN,1
553161.919,1,0,0,1.000,1.000,1.000,-90.00,180.00,-162.00,OPEN,0
553161.970,1,0,0,1.000,1.000,1.000,-90.00,180.00,-157.50,OPEN,1
553162.022,1,0,0,1.000,1.000,1.000,-90.00,180.00,-157.50,OPEN,0
553162.073,1,0,0,1.000,1.000,1.000,-90.00,180.00,-153.00,OPEN,1
553162.126,1,0,0,1.000,1.000,1.000,-90.00,180.00,-153.00,OPEN,0
553162.176,1,0,0,1.000,1.000,1.000,-90.00,180.00,-148.50,OPEN,1
553162.229,1,0,0,1.000,1.000,1.000,-90.00,180.00,-148.50,OPEN,0
553162.279,1,0,0,1.000,1.000,1.000,-90.00,180.00,-144.00,OPEN,1
553162.331,1,0,0,1.000,1.000,1.000,-90.00,180.00,-144.00,OPEN,0
553162.381,1,0,0,1.000,1.000,1.000,-90.00,180.00,-139.50,OPEN,1
553162.433,1,0,0,1.000,1.000,1.000,-90.00,180.00,-139.50,OPEN,0
553162.484,1,0,0,1.000,1.000,1.000,-90.00,180.00,-135.00,OPEN,1
553162.536,1,0,0,1.000,1.000,1.000,-90.00,180.00,-135.00,OPEN,0
553162.586,1,0,0,1.000,1.000,1.000,-90.00,180.00,-130.50,OPEN,1
553162.638,1,0,0,1.000,1.000,1.000,-90.00,180.00,-130.50,OPEN,0
553162.688,1,0,0,1.000,1.000,1.000,-90.00,180.00,-126.00,OPEN,1
553162.741,1,0,0,1.000,1.000,1.000,-90.00,180.00,-126.00,OPEN,0
553162.791,1,0,0,1.000,1.000,1.000,-90.00,180.00,-121.50,OPEN,1
553162.844,1,0,0,1.000,1.000,1.000,-90.00,180.00,-121.50,OPEN,0
553162.895,1,0,0,1.000,1.000,1.000,-90.00,180.00,-117.00,OPEN,1
553162.948,1,0,0,1.000,1.000,1.000,-90.00,180.00,-117.00,OPEN,0
553162.998,1,0,0,1.000,1.000,1.000,-90.00,180.00,-112.50,OPEN,1
553163.050,1,0,0,1.000,1.000,1.000,-90.00,180.00,-112.50,OPEN,0
553163.101,1,0,0,1.000,1.000,1.000,-90.00,180.00,-108.00,OPEN,1
553163.153,1,0,0,1.000,1.000,1.000,-90.00,180.00,-108.00,OPEN,0
553163.204,1,0,0,1.000,1.000,1.000,-90.00,180.00,-103.50,OPEN,1
553163.256,1,0,0,1.000,1.000,1.000,-90.00,180.00,-103.50,OPEN,0
553163.307,1,0,0,1.000,1.000,1.000,-90.00,180.00,-99.00,OPEN,1
553163.359,1,0,0,1.000,1.000,1.000,-90.00,180.00,-99.00,OPEN,0
553163.410,1,0,0,1.000,1.000,1.000,-90.00,180.00,-94.50,OPEN,1
553163.463,1,0,0,1.000,1.000,1.000,-90.00,180.00,-94.50,OPEN,0
553163.513,1,0,0,1.000,1.000,1.000,-90.00,180.00,-90.00,OPEN,1
553163.565,1,0,0,1.000,1.000,1.000,-90.00,180.00,-90.00,OPEN,0
553163.616,1,0,0,1.000,1.000,1.000,-90.00,180.00,-85.50,OPEN,1
553163.669,1,0,0,1.000,1.000,1.000,-90.00,180.00,-85.50,OPEN,0
553163.719,1,0,0,1.000,1.000,1.000,-90.00,180.00,-81.00,OPEN,1
553163.771,1,0,0,1.000,1.000,1.000,-90.00,180.00,-81.00,OPEN,0
553163.822,1,0,0,1.000,1.000,1.000,-90.00,180.00,-76.50,OPEN,1
553163.874,1,0,0,1.000,1.000,1.000,-90.00,180.00,-76.50,OPEN,0
553163.925,1,0,0,1.000,1.000,1.000,-90.00,180.00,-72.00,OPEN,1
553163.977,1,0,0,1.000,1.000,1.000,-90.00,180.00,-72.00,OPEN,0
553164.028,1,0,0,1.000,1.000,1.000,-90.00,180.00,-67.50,OPEN,1
553164.080,1,0,0,1.000,1.000,1.000,-90.00,180.00,-67.50,OPEN,0
553164.131,1,0,0,1.000,1.000,1.000,-90.00,180.00,-63.00,OPEN,1
553164.184,1,0,0,1.000,1.000,1.000,-90.00,180.00,-63.00,OPEN,0
553164.234,1,0,0,1.000,1.000,1.000,-90.00,180.00,-58.50,OPEN,1
553164.286,1,0,0,1.000,1.000,1.000,-90.00,180.00,-58.50,OPEN,0
553164.337,1,0,0,1.000,1.000,1.000,-90.00,180.00,-54.00,OPEN,1
553164.389,1,0,0,1.000,1.000,1.000,-90.00,180.00,-54.00,OPEN,0
553164.440,1,0,0,1.000,1.000,1.000,-90.00,180.00,-49.50,OPEN,1
553164.491,1,0,0,1.000,1.000,1.000,-90.00,180.00,-49.50,OPEN,0
553164.542,1,0,0,1.000,1.000,1.000,-90.00,180.00,-45.00,OPEN,1
553164.594,1,0,0,1.000,1.000,1.000,-90.00,180.00,-45.00,OPEN,0
553164.644,1,0,0,1.000,1.000,1.000,-90.00,180.00,-40.50,OPEN,1
553164.696,1,0,0,1.000,1.000,1.000,-90.00,180.00,-40.50,OPEN,0
553164.747,1,0,0,1.000,1.000,1.000,-90.00,180.00,-36.00,OPEN,1
553164.798,1,0,0,1.000,1.000,1.000,-90.00,180.00,-36.00,OPEN,0
553164.849,1,0,0,1.000,1.000,1.000,-90.00,180.00,-31.50,OPEN,1
553164.902,1,0,0,1.000,1.000,1.000,-90.00,180.00,-31.50,OPEN,0
553164.952,1,0,0,1.000,1.000,1.000,-90.00,180.00,-27.00,OPEN,1
553165.004,1,0,0,1.000,1.000,1.000,-90.00,180.00,-27.00,OPEN,0
