t,hand,elbow,shoulder,p_hand,p_elbow,p_shoulder,J2,J3,J6,grip_state,cmd_sent
660301.998,0,0,0,0.981,1.000,0.999,-90.00,180.00,0.00,OPEN,0
660302.015,0,0,0,0.997,1.000,0.999,-90.00,180.00,0.00,OPEN,0
660302.020,0,0,0,1.000,1.000,0.998,-90.00,180.00,0.00,OPEN,0
660302.024,0,0,0,1.000,1.000,0.999,-90.00,180.00,0.00,OPEN,0
660302.028,0,0,0,1.000,1.000,0.999,-90.00,180.00,0.00,OPEN,0
660302.032,0,0,0,1.000,1.000,0.999,-90.00,180.00,0.00,OPEN,0
660302.035,0,0,0,1.000,1.000,0.999,-90.00,180.00,0.00,OPEN,0
660302.039,0,0,0,1.000,1.000,0.999,-90.00,180.00,0.00,OPEN,0
660302.044,0,0,0,1.000,1.000,0.999,-90.00,180.00,0.00,OPEN,0
660302.049,0,0,0,1.000,1.000,0.999,-90.00,180.00,0.00,OPEN,0
660302.053,0,0,0,1.000,1.000,0.999,-90.00,180.00,0.00,OPEN,0
660302.097,0,0,0,1.000,1.000,0.998,-90.00,180.00,0.00,OPEN,0
660302.147,0,0,0,1.000,1.000,0.998,-90.00,180.00,0.00,OPEN,0
660302.197,0,0,0,1.000,1.000,0.998,-90.00,180.00,0.00,OPEN,0
660302.247,0,0,0,1.000,1.000,0.996,-90.00,180.00,0.00,OPEN,0
660302.298,0,0,0,1.000,1.000,0.995,-90.00,180.00,0.00,OPEN,0
660302.347,0,0,0,1.000,1.000,0.997,-90.00,180.00,0.00,OPEN,0
660302.398,0,0,0,1.000,1.000,0.996,-90.00,180.00,0.00,OPEN,0
660302.447,0,0,0,1.000,1.000,0.997,-90.00,180.00,0.00,OPEN,0
660302.497,0,0,0,1.000,1.000,0.997,-90.00,180.00,0.00,OPEN,0
660302.548,0,0,0,1.000,1.000,0.992,-90.00,180.00,0.00,OPEN,0
660302.597,0,0,0,1.000,1.000,0.988,-90.00,180.00,0.00,OPEN,0
660302.647,1,0,0,1.000,1.000,0.972,-90.00,180.00,4.50,OPEN,1
660302.697,1,0,0,1.000,1.000,0.994,-90.00,180.00,4.50,OPEN,0
660302.748,1,0,0,1.000,1.000,0.996,-90.00,180.00,9.00,OPEN,1
660302.798,1,0,0,1.000,1.000,0.993,-90.00,180.00,9.00,OPEN,0
660302.847,1,0,0,1.000,1.000,0.994,-90.00,180.00,9.00,OPEN,0
660302.897,1,0,0,1.000,1.000,0.993,-90.00,180.00,13.50,OPEN,1
660302.947,1,0,0,1.000,1.000,0.994,-90.00,180.00,13.50,OPEN,0
660302.997,1,0,0,1.000,1.000,0.985,-90.00,180.00,13.50,OPEN,0
660303.047,1,0,0,1.000,1.000,0.889,-90.00,180.00,18.00,OPEN,1
660303.097,1,0,0,1.000,1.000,0.814,-90.00,180.00,18.00,OPEN,0
660303.149,1,0,0,1.000,1.000,0.943,-90.00,180.00,22.50,OPEN,1
660303.198,1,0,0,1.000,1.000,0.984,-90.00,180.00,22.50,OPEN,0
660303.247,1,0,0,1.000,1.000,0.991,-90.00,180.00,22.50,OPEN,0
660303.297,1,0,0,1.000,1.000,0.992,-90.00,180.00,27.00,OPEN,1
660303.347,1,0,0,1.000,1.000,0.995,-90.00,180.00,27.00,OPEN,0
660303.397,1,0,0,1.000,1.000,0.996,-90.00,180.00,27.00,OPEN,0
660303.447,1,0,0,1.000,1.000,0.998,-90.00,180.00,31.50,OPEN,1
660303.497,1,0,0,1.000,1.000,0.998,-90.00,180.00,31.50,OPEN,0
660303.547,1,0,0,1.000,1.000,0.997,-90.00,180.00,31.50,OPEN,0
660303.597,1,0,0,1.000,1.000,0.994,-90.00,180.00,36.00,OPEN,1
660303.647,1,0,0,1.000,1.000,0.994,-90.00,180.00,36.00,OPEN,0
660303.697,1,0,0,1.000,1.000,0.993,-90.00,180.00,36.00,OPEN,0
660303.748,1,0,0,1.000,1.000,0.989,-90.00,180.00,40.50,OPEN,1
660303.798,1,0,0,1.000,1.000,0.981,-90.00,180.00,40.50,OPEN,0
660303.848,1,0,0,1.000,1.000,0.978,-90.00,180.00,45.00,OPEN,1
660303.897,1,0,0,1.000,1.000,0.983,-90.00,180.00,45.00,OPEN,0
660303.947,1,0,0,1.000,1.000,0.993,-90.00,180.00,45.00,OPEN,0
660303.997,1,0,0,1.000,1.000,0.992,-90.00,180.00,49.50,OPEN,1
660304.047,1,0,0,1.000,1.000,0.992,-90.00,180.00,49.50,OPEN,0
660304.102,1,0,0,1.000,1.000,0.989,-90.00,180.00,54.00,OPEN,1
660304.147,1,0,0,1.000,1.000,0.988,-90.00,180.00,54.00,OPEN,0
660304.197,1,0,0,1.000,1.000,0.957,-90.00,180.00,54.00,OPEN,0
660304.247,1,0,0,1.000,1.000,0.920,-90.00,180.00,58.50,OPEN,1
660304.298,1,0,0,1.000,1.000,0.942,-90.00,180.00,58.50,OPEN,0
660304.347,1,0,0,1.000,1.000,0.936,-90.00,180.00,63.00,OPEN,1
660304.397,1,0,0,1.000,1.000,0.935,-90.00,180.00,63.00,OPEN,0
660304.447,1,0,0,1.000,1.000,0.911,-90.00,180.00,63.00,OPEN,0
660304.498,1,0,0,1.000,1.000,0.908,-90.00,180.00,67.50,OPEN,1
660304.548,1,0,0,1.000,1.000,0.968,-90.00,180.00,67.50,OPEN,0
660304.597,1,0,0,1.000,1.000,0.969,-90.00,180.00,67.50,OPEN,0
660304.647,1,0,0,1.000,1.000,0.981,-90.00,180.00,72.00,OPEN,1
660304.698,1,0,0,1.000,1.000,0.995,-90.00,180.00,72.00,OPEN,0
660304.747,1,0,0,1.000,1.000,0.996,-90.00,180.00,76.50,OPEN,1
660304.798,1,0,0,1.000,1.000,0.996,-90.00,180.00,76.50,OPEN,0
660304.847,1,0,0,1.000,1.000,0.994,-90.00,180.00,76.50,OPEN,0
660304.897,1,0,0,1.000,1.000,0.990,-90.00,180.00,81.00,OPEN,1
660304.947,1,0,0,1.000,1.000,0.986,-90.00,180.00,81.00,OPEN,0
660304.998,1,0,0,1.000,1.000,0.987,-90.00,180.00,85.50,OPEN,1
660305.047,1,0,0,1.000,1.000,0.982,-90.00,180.00,85.50,OPEN,0
660305.098,1,0,0,1.000,1.000,0.978,-90.00,180.00,85.50,OPEN,0
660305.147,1,0,0,1.000,1.000,0.983,-90.00,180.00,90.00,OPEN,1
660305.197,1,0,0,1.000,1.000,0.988,-90.00,180.00,90.00,OPEN,0
660305.247,1,0,0,1.000,1.000,0.994,-90.00,180.00,94.50,OPEN,1
660305.297,1,0,0,1.000,1.000,0.994,-90.00,180.00,94.50,OPEN,0
660305.347,1,0,0,1.000,1.000,0.990,-90.00,180.00,94.50,OPEN,0
660305.397,1,0,0,1.000,1.000,0.991,-90.00,180.00,99.00,OPEN,1
660305.447,1,0,0,1.000,1.000,0.989,-90.00,180.00,99.00,OPEN,0
660305.498,1,0,0,1.000,1.000,0.986,-90.00,180.00,103.50,OPEN,1
660305.547,1,0,0,1.000,1.000,0.985,-90.00,180.00,103.50,OPEN,0
660305.597,1,0,0,1.000,1.000,0.981,-90.00,180.00,103.50,OPEN,0
660305.647,1,0,0,1.000,1.000,0.979,-90.00,180.00,108.00,OPEN,1
660305.697,1,0,0,1.000,1.000,0.988,-90.00,180.00,108.00,OPEN,0
660305.747,1,0,0,1.000,1.000,0.987,-90.00,180.00,108.00,OPEN,0
660305.797,1,0,0,1.000,1.000,0.987,-90.00,180.00,112.50,OPEN,1
660305.847,1,0,0,1.000,1.000,0.987,-90.00,180.00,112.50,OPEN,0
660305.897,1,0,0,1.000,1.000,0.990,-90.00,180.00,112.50,OPEN,0
660305.947,1,0,0,1.000,1.000,0.994,-90.00,180.00,117.00,OPEN,1
660305.998,1,0,0,1.000,1.000,0.989,-90.00,180.00,117.00,OPEN,0
660306.047,1,0,0,1.000,1.000,0.987,-90.00,180.00,121.50,OPEN,1
660306.098,1,0,0,1.000,1.000,0.987,-90.00,180.00,121.50,OPEN,0
660306.147,1,0,0,1.000,1.000,0.990,-90.00,180.00,126.00,OPEN,1
660306.197,1,0,0,1.000,1.000,0.981,-90.00,180.00,126.00,OPEN,0
660306.247,1,0,0,1.000,1.000,0.979,-90.00,180.00,126.00,OPEN,0
660306.297,1,0,0,1.000,1.000,0.985,-90.00,180.00,130.50,OPEN,1
660306.347,1,0,0,1.000,1.000,1.000,-90.00,180.00,130.50,OPEN,0
660306.397,1,0,0,1.000,1.000,1.000,-90.00,180.00,135.00,OPEN,1
660306.447,1,0,0,1.000,1.000,1.000,-90.00,180.00,135.00,OPEN,0
660306.498,1,0,0,1.000,1.000,1.000,-90.00,180.00,139.50,OPEN,1
660306.547,1,0,0,1.000,1.000,1.000,-90.00,180.00,139.50,OPEN,0
660306.597,1,0,0,1.000,1.000,1.000,-90.00,180.00,139.50,OPEN,0
660306.647,1,0,0,1.000,1.000,1.000,-90.00,180.00,144.00,OPEN,1
660306.698,1,0,0,1.000,1.000,1.000,-90.00,180.00,144.00,OPEN,0
660306.747,1,0,0,1.000,1.000,1.000,-90.00,180.00,148.50,OPEN,1
660306.797,1,0,0,1.000,1.000,1.000,-90.00,180.00,148.50,OPEN,0
660306.848,1,0,0,1.000,1.000,1.000,-90.00,180.00,153.00,OPEN,1
660306.897,1,0,0,1.000,1.000,1.000,-90.00,180.00,153.00,OPEN,0
660306.947,1,0,0,1.000,1.000,1.000,-90.00,180.00,153.00,OPEN,0
660306.998,1,0,0,1.000,1.000,1.000,-90.00,180.00,157.50,OPEN,1
660307.047,1,0,0,1.000,1.000,1.000,-90.00,180.00,157.50,OPEN,0
660307.098,1,0,0,1.000,1.000,1.000,-90.00,180.00,162.00,OPEN,1
660307.147,1,0,0,1.000,1.000,1.000,-90.00,180.00,162.00,OPEN,0
660307.197,1,0,0,1.000,1.000,1.000,-90.00,180.00,162.00,OPEN,0
660307.248,1,1,1,1.000,1.000,0.924,-86.94,176.94,166.50,OPEN,1
660307.297,1,1,1,1.000,1.000,0.700,-83.96,173.96,166.50,OPEN,0
660307.347,1,1,1,1.000,1.000,0.790,-80.98,170.98,166.50,OPEN,0
660307.398,1,1,1,1.000,1.000,1.000,-77.94,167.94,171.00,OPEN,1
660307.447,1,1,1,1.000,1.000,1.000,-74.95,164.95,171.00,OPEN,0
660307.497,1,1,1,1.000,1.000,1.000,-71.98,161.98,171.00,OPEN,0
660307.549,1,1,1,0.773,1.000,1.000,-68.88,158.88,175.50,OPEN,1
660307.597,1,1,1,1.000,1.000,1.000,-66.00,156.00,175.50,OPEN,0
660307.647,1,1,1,1.000,1.000,1.000,-62.99,152.99,175.50,OPEN,0
660307.697,1,1,1,1.000,1.000,1.000,-59.96,149.96,180.00,OPEN,1
660307.747,1,1,1,1.000,1.000,1.000,-56.96,146.96,180.00,OPEN,0
660307.797,1,1,1,1.000,1.000,1.000,-53.98,143.98,180.00,OPEN,0
660307.847,1,1,1,1.000,1.000,1.000,-50.98,140.98,180.00,OPEN,1
660307.897,1,1,1,1.000,0.522,0.982,-47.96,137.96,180.00,OPEN,0
660307.947,0,1,1,1.000,0.998,0.732,-44.97,134.97,180.00,OPEN,1
660307.998,0,1,1,1.000,1.000,0.598,-41.94,131.94,180.00,OPEN,0
660308.047,0,1,1,1.000,1.000,0.546,-38.97,128.97,180.00,OPEN,1
660308.097,0,1,1,1.000,1.000,0.600,-35.99,125.99,180.00,OPEN,0
660308.147,0,0,1,1.000,1.000,0.996,-32.97,129.00,180.00,OPEN,1
660308.197,0,0,1,1.000,1.000,0.976,-29.96,132.01,180.00,OPEN,0
660308.247,0,0,1,1.000,1.000,0.959,-27.00,134.97,180.00,OPEN,0
660308.297,0,0,0,1.000,1.000,0.984,-30.00,137.97,180.00,OPEN,1
660308.347,0,0,0,1.000,0.992,0.988,-33.00,140.98,180.00,OPEN,0
660308.397,0,0,0,1.000,0.973,0.978,-36.01,143.98,180.00,OPEN,1
660308.447,0,0,0,1.000,0.743,0.999,-39.03,147.01,180.00,OPEN,0
660308.497,0,0,0,1.000,1.000,1.000,-42.02,150.00,180.00,OPEN,1
660308.550,0,0,0,1.000,1.000,0.995,-45.21,153.19,180.00,OPEN,0
660308.598,0,0,0,1.000,0.810,0.803,-48.10,156.08,180.00,OPEN,1
660308.647,0,0,0,1.000,0.977,0.574,-51.02,159.00,180.00,OPEN,0
660308.699,0,0,0,1.000,0.949,0.637,-54.11,162.09,180.00,OPEN,1
660308.748,0,0,0,1.000,0.778,0.794,-57.07,165.05,180.00,OPEN,0
660308.797,0,0,0,1.000,0.995,0.992,-60.03,168.00,180.00,OPEN,0
660308.847,0,0,0,1.000,1.000,1.000,-63.02,171.00,180.00,OPEN,1
660308.898,0,0,0,1.000,1.000,1.000,-66.08,174.06,180.00,OPEN,0
660308.947,0,0,0,1.000,1.000,1.000,-69.02,177.00,180.00,OPEN,1
660308.997,0,0,0,1.000,1.000,1.000,-71.99,179.97,180.00,OPEN,0
660309.048,0,0,0,1.000,1.000,1.000,-75.05,180.00,180.00,OPEN,1
660309.097,0,0,0,1.000,1.000,1.000,-78.00,180.00,180.00,OPEN,0
660309.147,0,0,0,1.000,1.000,1.000,-81.01,180.00,180.00,OPEN,0
660309.197,0,0,0,1.000,1.000,0.956,-84.01,180.00,180.00,OPEN,1
660309.247,0,0,0,1.000,1.000,0.562,-87.01,180.00,180.00,OPEN,0
660309.297,0,0,0,1.000,1.000,1.000,-89.99,180.00,180.00,OPEN,0
660309.347,0,0,0,1.000,1.000,1.000,-90.00,180.00,180.00,OPEN,1
660309.397,0,0,0,1.000,1.000,1.000,-90.00,180.00,180.00,OPEN,0
660309.447,0,0,0,1.000,1.000,1.000,-90.00,180.00,180.00,OPEN,0
660309.497,0,0,0,1.000,1.000,1.000,-90.00,180.00,180.00,OPEN,0
660309.547,0,0,0,1.000,1.000,1.000,-90.00,180.00,180.00,OPEN,0
660309.598,0,0,0,1.000,1.000,1.000,-90.00,180.00,180.00,OPEN,0
660309.647,0,0,0,1.000,1.000,1.000,-90.00,180.00,180.00,OPEN,0
660309.697,0,0,0,1.000,1.000,1.000,-90.00,180.00,180.00,OPEN,0
660309.747,0,0,0,1.000,1.000,1.000,-90.00,180.00,180.00,OPEN,0
660309.799,0,0,0,1.000,1.000,1.000,-90.00,180.00,180.00,OPEN,0
660309.847,0,0,0,1.000,1.000,1.000,-90.00,180.00,180.00,OPEN,0
660309.897,0,0,0,1.000,1.000,1.000,-90.00,180.00,180.00,OPEN,0
660309.948,0,0,0,1.000,1.000,1.000,-90.00,180.00,180.00,OPEN,0
660309.997,0,0,0,1.000,1.000,1.000,-90.00,180.00,180.00,OPEN,0
660310.047,0,0,0,1.000,1.000,1.000,-90.00,180.00,180.00,OPEN,0
660310.097,0,0,0,1.000,1.000,1.000,-90.00,180.00,180.00,OPEN,0
660310.147,0,0,0,1.000,0.999,1.000,-90.00,180.00,180.00,OPEN,0
660310.197,0,0,0,1.000,0.847,0.986,-90.00,180.00,180.00,OPEN,0
660310.247,0,0,0,1.000,1.000,0.759,-90.00,180.00,180.00,OPEN,0
660310.297,0,0,0,1.000,1.000,0.965,-90.00,180.00,180.00,OPEN,0
660310.348,0,0,0,1.000,1.000,0.994,-90.00,180.00,180.00,OPEN,0
660310.397,0,0,0,1.000,1.000,0.994,-90.00,180.00,180.00,OPEN,0
660310.448,0,0,0,1.000,1.000,0.993,-90.00,180.00,180.00,OPEN,0
660310.497,0,0,0,1.000,1.000,0.991,-90.00,180.00,180.00,OPEN,0
660310.547,0,0,0,1.000,1.000,0.987,-90.00,180.00,180.00,OPEN,0
660310.597,0,0,0,1.000,1.000,0.991,-90.00,180.00,180.00,OPEN,0
660310.647,0,0,1,1.000,1.000,0.995,-87.00,180.00,180.00,OPEN,1
660310.697,0,0,1,1.000,1.000,0.993,-84.00,180.00,180.00,OPEN,0
660310.747,0,0,1,1.000,1.000,0.985,-81.00,180.00,180.00,OPEN,1
660310.797,0,0,1,1.000,1.000,0.981,-77.99,180.00,180.00,OPEN,0
660310.848,0,0,1,1.000,1.000,0.991,-74.98,180.00,180.00,OPEN,1
660310.898,0,0,1,1.000,1.000,0.989,-71.95,180.00,180.00,OPEN,0
660310.948,0,0,1,1.000,1.000,0.980,-68.97,180.00,180.00,OPEN,1
660310.998,0,0,1,1.000,1.000,0.959,-65.97,180.00,180.00,OPEN,0
660311.047,0,0,1,1.000,1.000,0.587,-63.00,180.00,180.00,OPEN,0
660311.097,0,0,1,1.000,1.000,0.505,-60.03,180.00,180.00,OPEN,1
660311.149,0,0,1,1.000,1.000,0.514,-56.90,180.00,180.00,OPEN,0
660311.197,0,0,1,1.000,1.000,0.504,-54.03,180.00,180.00,OPEN,1
660311.247,0,0,1,1.000,1.000,0.527,-51.01,180.00,180.00,OPEN,0
660311.297,0,0,1,1.000,1.000,0.761,-48.02,180.00,180.00,OPEN,1
660311.347,0,0,1,1.000,1.000,0.892,-45.02,180.00,180.00,OPEN,0
660311.397,0,0,1,1.000,1.000,0.929,-42.01,180.00,180.00,OPEN,1
660311.447,0,0,1,1.000,1.000,0.940,-39.03,180.00,180.00,OPEN,0
660311.497,0,0,1,1.000,1.000,0.913,-36.02,180.00,180.00,OPEN,0
660311.547,0,0,1,1.000,1.000,0.912,-33.00,180.00,180.00,OPEN,1
660311.597,0,0,1,1.000,1.000,0.848,-30.00,180.00,180.00,OPEN,0
660311.649,0,0,1,1.000,1.000,0.874,-26.88,180.00,180.00,OPEN,1
660311.697,0,0,1,1.000,1.000,0.876,-24.01,180.00,180.00,OPEN,0
660311.752,0,0,1,1.000,1.000,0.909,-20.70,180.00,180.00,OPEN,1
660311.799,0,0,1,1.000,1.000,0.925,-17.91,180.00,180.00,OPEN,0
660311.848,0,0,1,1.000,1.000,0.970,-14.98,180.00,180.00,OPEN,0
660311.897,0,0,1,1.000,1.000,0.980,-12.01,180.00,180.00,OPEN,1
660311.947,0,0,1,1.000,1.000,0.982,-8.99,180.00,180.00,OPEN,0
660311.997,0,0,1,1.000,1.000,0.990,-6.01,180.00,180.00,OPEN,0
660312.047,0,0,1,1.000,1.000,0.993,-3.00,180.00,180.00,OPEN,1
660312.097,0,0,1,1.000,1.000,0.991,-0.00,180.00,180.00,OPEN,0
660312.147,0,0,1,1.000,1.000,0.993,0.00,180.00,180.00,OPEN,0
660312.197,0,0,1,1.000,1.000,0.995,0.00,180.00,180.00,OPEN,1
660312.247,0,0,1,1.000,1.000,0.995,0.00,180.00,180.00,OPEN,0
660312.297,0,0,1,1.000,1.000,0.996,0.00,180.00,180.00,OPEN,0
660312.347,0,0,1,1.000,1.000,0.997,0.00,180.00,180.00,OPEN,0
660312.397,0,0,1,1.000,1.000,0.988,0.00,180.00,180.00,OPEN,0
660312.448,0,0,1,1.000,1.000,0.949,0.00,180.00,180.00,OPEN,0
660312.497,0,0,1,1.000,1.000,0.769,0.00,180.00,180.00,OPEN,0
660312.547,0,0,1,1.000,1.000,0.682,0.00,180.00,180.00,OPEN,0
660312.597,0,0,1,1.000,1.000,0.598,0.00,180.00,180.00,OPEN,0
660312.647,0,0,1,1.000,1.000,0.619,0.00,180.00,180.00,OPEN,0
660312.698,0,0,1,1.000,1.000,0.518,0.00,180.00,180.00,OPEN,0
660312.747,0,0,1,1.000,1.000,0.527,0.00,180.00,180.00,OPEN,0
660312.797,0,0,1,1.000,1.000,0.560,0.00,180.00,180.00,OPEN,0
660312.848,0,0,1,1.000,1.000,0.534,0.00,180.00,180.00,OPEN,0
660312.897,0,0,1,1.000,1.000,0.687,0.00,180.00,180.00,OPEN,0
660312.947,0,0,1,1.000,1.000,0.702,0.00,180.00,180.00,OPEN,0
660312.997,0,0,1,1.000,1.000,0.818,0.00,180.00,180.00,OPEN,0
660313.047,0,0,1,1.000,1.000,0.739,0.00,180.00,180.00,OPEN,0
660313.097,0,0,1,1.000,1.000,0.771,0.00,180.00,180.00,OPEN,0
660313.148,0,0,1,1.000,1.000,0.750,0.00,180.00,180.00,OPEN,0
660313.198,0,0,1,1.000,1.000,0.721,0.00,180.00,180.00,OPEN,0
660313.247,0,0,1,1.000,1.000,0.617,0.00,180.00,180.00,OPEN,0
660313.297,0,0,1,1.000,1.000,0.580,0.00,180.00,180.00,OPEN,0
660313.347,0,0,1,1.000,1.000,0.666,0.00,180.00,180.00,OPEN,0
660313.396,0,0,1,1.000,1.000,0.615,0.00,180.00,180.00,OPEN,0
660313.447,0,0,1,1.000,1.000,0.527,0.00,180.00,180.00,OPEN,0
660313.497,0,0,1,1.000,1.000,0.607,0.00,180.00,180.00,OPEN,0
660313.547,0,0,1,1.000,1.000,0.608,0.00,180.00,180.00,OPEN,0
660313.597,0,0,1,1.000,1.000,0.708,0.00,180.00,180.00,OPEN,0
660313.647,0,0,1,1.000,1.000,0.855,0.00,180.00,180.00,OPEN,0
660313.698,0,0,1,1.000,1.000,0.816,0.00,180.00,180.00,OPEN,0
660313.747,0,0,1,1.000,1.000,0.858,0.00,180.00,180.00,OPEN,0
660313.797,0,0,1,1.000,1.000,0.850,0.00,180.00,180.00,OPEN,0
660313.847,0,0,1,1.000,1.000,0.653,0.00,180.00,180.00,OPEN,0
660313.897,0,0,1,1.000,1.000,0.612,0.00,180.00,180.00,OPEN,0
660313.949,0,0,1,1.000,1.000,0.638,0.00,180.00,180.00,OPEN,0
660313.997,0,0,1,1.000,1.000,0.707,0.00,180.00,180.00,OPEN,0
660314.047,0,0,1,1.000,1.000,0.766,0.00,180.00,180.00,OPEN,0
660314.097,0,0,1,1.000,1.000,0.682,0.00,180.00,180.00,OPEN,0
660314.147,0,0,1,1.000,1.000,0.505,0.00,180.00,180.00,OPEN,0
660314.198,0,0,1,1.000,1.000,0.640,0.00,180.00,180.00,OPEN,0
660314.247,0,0,1,1.000,1.000,0.733,0.00,180.00,180.00,OPEN,0
660314.297,0,0,1,1.000,1.000,1.000,0.00,180.00,180.00,OPEN,0
660314.346,0,0,1,1.000,1.000,1.000,0.00,180.00,180.00,OPEN,0
660314.397,0,0,1,1.000,1.000,1.000,0.00,180.00,180.00,OPEN,0
660314.447,0,0,1,1.000,1.000,1.000,0.00,180.00,180.00,OPEN,0
660314.497,0,0,1,1.000,1.000,1.000,0.00,180.00,180.00,OPEN,0
660314.547,0,0,1,1.000,1.000,1.000,0.00,180.00,180.00,OPEN,0
660314.597,0,0,1,1.000,1.000,1.000,0.00,180.00,180.00,OPEN,0
660314.647,0,0,1,1.000,1.000,1.000,0.00,180.00,180.00,OPEN,0
660314.698,0,0,1,1.000,1.000,1.000,0.00,180.00,180.00,OPEN,0
660314.747,0,0,1,1.000,1.000,1.000,0.00,180.00,180.00,OPEN,0
660314.797,0,0,1,0.984,1.000,1.000,0.00,180.00,180.00,OPEN,0
660314.847,0,0,1,0.985,1.000,1.000,0.00,180.00,180.00,OPEN,0
660314.897,0,0,1,0.968,1.000,1.000,0.00,180.00,180.00,OPEN,0
660314.948,0,0,1,0.966,1.000,1.000,0.00,180.00,180.00,OPEN,0
660314.997,0,0,1,0.962,1.000,1.000,0.00,180.00,180.00,OPEN,0
660315.047,0,0,0,0.957,1.000,1.000,-3.00,180.00,180.00,OPEN,1
660315.097,0,0,0,0.937,1.000,1.000,-5.99,180.00,180.00,OPEN,0
660315.147,0,0,0,0.984,1.000,1.000,-9.03,180.00,180.00,OPEN,1
660315.197,0,0,0,0.999,1.000,1.000,-12.01,180.00,180.00,OPEN,0
660315.247,0,0,0,1.000,1.000,1.000,-15.01,180.00,180.00,OPEN,0
660315.298,0,0,0,1.000,0.985,0.999,-18.04,180.00,180.00,OPEN,1
660315.347,0,0,0,1.000,1.000,1.000,-21.01,180.00,180.00,OPEN,0
660315.397,0,0,0,1.000,1.000,1.000,-24.01,180.00,180.00,OPEN,0
660315.447,0,0,0,1.000,0.997,1.000,-27.02,180.00,180.00,OPEN,1
660315.498,2,0,0,1.000,1.000,1.000,-30.09,180.00,175.50,OPEN,0
660315.547,2,0,0,1.000,1.000,1.000,-33.03,180.00,175.50,OPEN,1
660315.597,2,0,0,1.000,1.000,1.000,-36.02,180.00,175.50,OPEN,0
660315.647,2,0,0,1.000,1.000,1.000,-39.00,180.00,171.00,OPEN,0
660315.697,2,1,1,1.000,0.996,0.988,-35.98,176.98,171.00,OPEN,1
660315.747,2,1,1,1.000,0.999,0.980,-32.99,173.99,166.50,OPEN,0
660315.797,2,1,1,1.000,0.999,0.977,-30.01,171.01,166.50,OPEN,0
660315.847,2,1,1,1.000,0.998,0.962,-26.97,167.97,162.00,OPEN,1
660315.897,2,1,1,1.000,0.958,0.800,-24.00,165.00,162.00,OPEN,0
660315.947,2,1,1,1.000,1.000,0.998,-20.97,161.97,162.00,OPEN,0
660315.997,2,1,1,1.000,1.000,1.000,-17.96,158.96,157.50,OPEN,1
660316.047,2,1,1,1.000,1.000,1.000,-14.99,156.00,157.50,OPEN,0
660316.097,2,1,1,1.000,1.000,1.000,-12.01,153.01,157.50,OPEN,0
660316.147,2,1,1,1.000,1.000,1.000,-9.01,150.01,153.00,OPEN,1
660316.197,2,1,1,1.000,1.000,1.000,-5.97,146.97,153.00,OPEN,0
660316.247,2,1,1,1.000,1.000,1.000,-3.00,144.01,148.50,OPEN,1
660316.305,2,1,1,1.000,1.000,1.000,0.00,140.52,148.50,OPEN,0
660316.347,2,1,1,1.000,1.000,1.000,0.00,137.98,144.00,OPEN,1
660316.397,2,1,1,1.000,1.000,1.000,0.00,134.97,144.00,OPEN,0
660316.447,2,1,1,1.000,1.000,1.000,0.00,131.99,144.00,OPEN,0
660316.497,2,1,1,1.000,1.000,1.000,0.00,128.97,139.50,OPEN,1
660316.547,2,1,1,1.000,1.000,1.000,0.00,125.97,139.50,OPEN,0
660316.597,2,1,1,1.000,1.000,1.000,0.00,122.96,135.00,OPEN,1
660316.647,2,1,1,1.000,1.000,1.000,0.00,120.00,135.00,OPEN,0
660316.697,2,1,1,1.000,1.000,1.000,0.00,117.00,135.00,OPEN,0
660316.748,2,1,1,1.000,1.000,1.000,0.00,113.95,130.50,OPEN,1
660316.797,2,1,1,1.000,1.000,1.000,0.00,110.96,130.50,OPEN,0
660316.848,2,0,0,1.000,1.000,1.000,-3.01,113.97,130.50,OPEN,0
660316.897,2,0,0,1.000,1.000,1.000,-5.97,116.93,126.00,OPEN,1
660316.947,2,0,0,1.000,1.000,1.000,-8.97,119.93,126.00,OPEN,0
660316.997,2,0,0,1.000,1.000,1.000,-12.00,122.96,121.50,OPEN,1
660317.047,2,0,0,1.000,1.000,1.000,-14.97,125.93,121.50,OPEN,0
660317.097,2,0,0,1.000,1.000,1.000,-17.96,128.92,121.50,OPEN,0
660317.147,2,0,0,1.000,1.000,1.000,-20.98,131.95,117.00,OPEN,1
660317.197,2,0,0,1.000,1.000,1.000,-23.99,134.95,117.00,OPEN,0
660317.247,2,0,0,1.000,1.000,1.000,-26.95,137.92,117.00,OPEN,0
660317.297,2,0,0,1.000,1.000,1.000,-29.97,140.94,112.50,OPEN,1
660317.348,2,0,0,1.000,1.000,1.000,-33.04,144.00,112.50,OPEN,0
660317.397,2,0,0,1.000,1.000,1.000,-35.97,146.93,112.50,OPEN,0
660317.450,2,0,0,1.000,1.000,1.000,-39.14,150.10,108.00,OPEN,1
660317.498,2,0,0,1.000,1.000,1.000,-42.01,152.97,108.00,OPEN,0
660317.547,2,0,0,1.000,1.000,1.000,-44.97,155.93,108.00,OPEN,0
660317.597,2,0,0,1.000,1.000,1.000,-47.97,158.94,103.50,OPEN,1
660317.647,2,0,0,1.000,1.000,1.000,-50.94,161.91,103.50,OPEN,0
660317.697,2,0,0,1.000,1.000,1.000,-53.98,164.95,99.00,OPEN,1
660317.747,2,0,0,1.000,1.000,1.000,-56.98,167.95,99.00,OPEN,0
660317.798,2,0,0,1.000,1.000,1.000,-60.06,171.02,94.50,OPEN,1
660317.847,2,0,0,1.000,1.000,1.000,-62.98,173.94,94.50,OPEN,0
660317.897,2,0,0,1.000,1.000,1.000,-65.96,176.92,94.50,OPEN,0
660317.946,2,0,0,1.000,1.000,1.000,-68.94,179.90,90.00,OPEN,1
660317.997,2,0,0,1.000,1.000,1.000,-71.99,180.00,90.00,OPEN,0
660318.048,2,0,0,1.000,1.000,1.000,-75.03,180.00,85.50,OPEN,1
660318.097,2,0,0,1.000,1.000,1.000,-77.98,180.00,85.50,OPEN,0
660318.147,2,0,0,1.000,1.000,1.000,-80.96,180.00,85.50,OPEN,0
660318.197,2,0,0,1.000,1.000,1.000,-83.99,180.00,81.00,OPEN,1
660318.247,2,0,0,1.000,1.000,1.000,-87.00,180.00,81.00,OPEN,0
660318.298,2,0,0,1.000,1.000,1.000,-90.00,180.00,76.50,OPEN,1
660318.347,2,0,0,1.000,1.000,1.000,-90.00,180.00,76.50,OPEN,0
660318.397,2,0,0,1.000,1.000,1.000,-90.00,180.00,76.50,OPEN,0
660318.447,2,0,0,1.000,1.000,1.000,-90.00,180.00,72.00,OPEN,1
660318.498,2,0,0,1.000,1.000,1.000,-90.00,180.00,72.00,OPEN,0
660318.547,2,0,0,1.000,1.000,1.000,-90.00,180.00,67.50,OPEN,1
660318.597,2,0,0,1.000,1.000,1.000,-90.00,180.00,67.50,OPEN,0
660318.648,2,0,0,1.000,1.000,1.000,-90.00,180.00,63.00,OPEN,1
660318.697,2,0,0,1.000,1.000,1.000,-90.00,180.00,63.00,OPEN,0
660318.747,2,0,0,1.000,1.000,1.000,-90.00,180.00,63.00,OPEN,0
660318.797,2,0,0,1.000,1.000,1.000,-90.00,180.00,58.50,OPEN,1
660318.847,2,0,0,1.000,1.000,1.000,-90.00,180.00,58.50,OPEN,0
660318.897,2,0,0,1.000,1.000,1.000,-90.00,180.00,58.50,OPEN,0
660318.947,2,0,0,1.000,1.000,1.000,-90.00,180.00,54.00,OPEN,1
660318.997,2,0,0,1.000,1.000,1.000,-90.00,180.00,54.00,OPEN,0
660319.047,2,0,0,1.000,1.000,1.000,-90.00,180.00,49.50,OPEN,1
660319.097,2,0,0,1.000,1.000,1.000,-90.00,180.00,49.50,OPEN,0
660319.147,2,0,0,1.000,1.000,1.000,-90.00,180.00,49.50,OPEN,0
660319.197,2,0,0,1.000,1.000,1.000,-90.00,180.00,45.00,OPEN,1
660319.247,2,0,0,1.000,1.000,1.000,-90.00,180.00,45.00,OPEN,0
660319.297,2,0,0,1.000,1.000,1.000,-90.00,180.00,40.50,OPEN,1
660319.348,2,0,0,1.000,1.000,1.000,-90.00,180.00,40.50,OPEN,0
660319.397,2,0,0,1.000,1.000,1.000,-90.00,180.00,36.00,OPEN,1
660319.447,2,0,0,1.000,1.000,1.000,-90.00,180.00,36.00,OPEN,0
660319.497,2,0,0,1.000,1.000,1.000,-90.00,180.00,36.00,OPEN,0
660319.547,2,0,0,1.000,1.000,1.000,-90.00,180.00,31.50,OPEN,1
660319.597,2,0,0,1.000,1.000,1.000,-90.00,180.00,31.50,OPEN,0
660319.647,2,0,0,1.000,1.000,1.000,-90.00,180.00,27.00,OPEN,1
660319.697,2,0,0,1.000,1.000,1.000,-90.00,180.00,27.00,OPEN,0
660319.747,2,0,0,1.000,1.000,1.000,-90.00,180.00,27.00,OPEN,0
660319.797,2,0,0,1.000,1.000,1.000,-90.00,180.00,22.50,OPEN,1
660319.847,2,0,0,1.000,1.000,1.000,-90.00,180.00,22.50,OPEN,0
660319.897,2,0,0,1.000,1.000,1.000,-90.00,180.00,18.00,OPEN,1
660319.947,2,0,0,1.000,1.000,1.000,-90.00,180.00,18.00,OPEN,0
660319.996,2,0,0,1.000,1.000,1.000,-90.00,180.00,18.00,OPEN,0
660320.047,2,0,0,1.000,1.000,1.000,-90.00,180.00,13.50,OPEN,1
660320.097,2,0,0,1.000,1.000,1.000,-90.00,180.00,13.50,OPEN,0
660320.147,2,0,0,1.000,1.000,1.000,-90.00,180.00,13.50,OPEN,0
660320.196,2,0,0,1.000,1.000,1.000,-90.00,180.00,9.00,OPEN,1
660320.247,2,0,0,1.000,1.000,1.000,-90.00,180.00,9.00,OPEN,0
660320.297,2,0,0,1.000,1.000,1.000,-90.00,180.00,4.50,OPEN,1
660320.347,2,0,0,1.000,1.000,1.000,-90.00,180.00,4.50,OPEN,0
660320.397,2,0,0,1.000,1.000,1.000,-90.00,180.00,0.00,OPEN,1
660320.447,2,0,0,1.000,1.000,1.000,-90.00,180.00,0.00,OPEN,0
660320.497,2,0,0,1.000,1.000,1.000,-90.00,180.00,0.00,OPEN,0
660320.547,2,0,0,1.000,1.000,1.000,-90.00,180.00,-4.50,OPEN,1
660320.597,2,0,0,1.000,1.000,1.000,-90.00,180.00,-4.50,OPEN,0
660320.647,2,0,0,1.000,1.000,1.000,-90.00,180.00,-9.00,OPEN,1
660320.697,2,0,0,1.000,1.000,1.000,-90.00,180.00,-9.00,OPEN,0
660320.747,2,0,0,1.000,1.000,1.000,-90.00,180.00,-13.50,OPEN,1
660320.797,2,0,0,1.000,1.000,1.000,-90.00,180.00,-13.50,OPEN,0
660320.847,2,0,0,1.000,1.000,1.000,-90.00,180.00,-13.50,OPEN,0
660320.897,2,0,0,1.000,1.000,1.000,-90.00,180.00,-18.00,OPEN,1
660320.947,2,0,0,1.000,1.000,1.000,-90.00,180.00,-18.00,OPEN,0
660320.996,2,0,0,1.000,1.000,1.000,-90.00,180.00,-18.00,OPEN,0
660321.047,2,0,0,0.999,1.000,1.000,-90.00,180.00,-22.50,OPEN,1
660321.097,2,0,0,0.998,1.000,1.000,-90.00,180.00,-22.50,OPEN,0
660321.147,2,0,0,0.994,1.000,1.000,-90.00,180.00,-27.00,OPEN,1
660321.197,2,0,0,0.963,1.000,1.000,-90.00,180.00,-27.00,OPEN,0
660321.247,2,0,0,0.904,1.000,1.000,-90.00,180.00,-27.00,OPEN,0
660321.297,2,0,0,0.723,1.000,1.000,-90.00,180.00,-31.50,OPEN,1
660321.346,2,0,0,0.684,1.000,1.000,-90.00,180.00,-31.50,OPEN,0
660321.397,2,0,0,0.927,1.000,1.000,-90.00,180.00,-36.00,OPEN,1
660321.447,2,0,0,0.966,1.000,1.000,-90.00,180.00,-36.00,OPEN,0
660321.497,2,0,0,0.999,1.000,1.000,-90.00,180.00,-36.00,OPEN,0
660321.547,2,0,0,1.000,1.000,1.000,-90.00,180.00,-40.50,OPEN,1
660321.597,2,0,0,1.000,1.000,1.000,-90.00,180.00,-40.50,OPEN,0
660321.647,2,0,0,1.000,1.000,1.000,-90.00,180.00,-45.00,OPEN,1
660321.697,2,0,0,1.000,1.000,1.000,-90.00,180.00,-45.00,OPEN,0
660321.747,0,0,0,1.000,1.000,1.000,-90.00,180.00,-45.00,OPEN,0
660321.800,0,0,0,1.000,1.000,1.000,-90.00,180.00,-45.00,OPEN,0
660321.848,0,0,0,1.000,1.000,1.000,-90.00,180.00,-45.00,OPEN,0
660321.897,0,0,0,1.000,1.000,1.000,-90.00,180.00,-45.00,OPEN,0
660321.947,0,0,0,1.000,1.000,1.000,-90.00,180.00,-45.00,OPEN,0
660321.996,0,0,0,1.000,1.000,1.000,-90.00,180.00,-45.00,OPEN,0
660322.047,0,0,0,1.000,1.000,1.000,-90.00,180.00,-45.00,OPEN,0
660322.097,0,0,0,1.000,1.000,1.000,-90.00,180.00,-45.00,OPEN,0
660322.147,0,0,0,1.000,1.000,1.000,-90.00,180.00,-45.00,OPEN,0
660322.197,0,0,0,1.000,1.000,1.000,-90.00,180.00,-45.00,OPEN,0
660322.247,0,0,0,1.000,1.000,1.000,-90.00,180.00,-45.00,OPEN,0
660322.297,0,0,0,1.000,1.000,1.000,-90.00,180.00,-45.00,OPEN,0
660322.347,0,0,0,1.000,1.000,1.000,-90.00,180.00,-45.00,OPEN,0
660322.397,0,0,0,1.000,1.000,1.000,-90.00,180.00,-45.00,OPEN,0
660322.447,0,0,0,1.000,1.000,1.000,-90.00,180.00,-45.00,OPEN,0
660322.497,0,0,0,1.000,1.000,1.000,-90.00,180.00,-45.00,OPEN,0
660322.547,0,0,0,1.000,1.000,1.000,-90.00,180.00,-45.00,OPEN,0
660322.597,0,0,0,1.000,1.000,1.000,-90.00,180.00,-45.00,OPEN,0
660322.648,0,0,0,1.000,1.000,1.000,-90.00,180.00,-45.00,OPEN,0
660322.697,0,0,0,1.000,1.000,1.000,-90.00,180.00,-45.00,OPEN,0
660322.747,0,0,0,1.000,1.000,1.000,-90.00,180.00,-45.00,OPEN,0
660322.797,0,0,0,1.000,1.000,1.000,-90.00,180.00,-45.00,OPEN,0
660322.847,0,0,0,1.000,1.000,1.000,-90.00,180.00,-45.00,OPEN,0
660322.898,0,0,0,1.000,1.000,1.000,-90.00,180.00,-45.00,OPEN,0
660322.947,0,0,0,1.000,1.000,1.000,-90.00,180.00,-45.00,OPEN,0
660322.997,0,0,0,1.000,1.000,1.000,-90.00,180.00,-45.00,OPEN,0
660323.047,0,0,0,1.000,1.000,1.000,-90.00,180.00,-45.00,OPEN,0
660323.097,0,0,0,1.000,1.000,1.000,-90.00,180.00,-45.00,OPEN,0
660323.147,0,0,0,1.000,1.000,1.000,-90.00,180.00,-45.00,OPEN,0
660323.197,0,0,0,1.000,1.000,1.000,-90.00,180.00,-45.00,OPEN,0
660323.246,0,0,0,1.000,1.000,1.000,-90.00,180.00,-45.00,OPEN,0
660323.300,0,0,0,1.000,1.000,1.000,-90.00,180.00,-45.00,OPEN,0
660323.347,0,0,0,1.000,1.000,1.000,-90.00,180.00,-45.00,OPEN,0
660323.397,0,0,0,1.000,1.000,1.000,-90.00,180.00,-45.00,OPEN,0
660323.448,0,0,0,1.000,1.000,1.000,-90.00,180.00,-45.00,OPEN,0
660323.498,0,0,0,1.000,1.000,1.000,-90.00,180.00,-45.00,OPEN,0
660323.548,0,0,0,1.000,1.000,1.000,-90.00,180.00,-45.00,OPEN,0
660323.598,0,0,0,1.000,1.000,1.000,-90.00,180.00,-45.00,OPEN,0
660323.647,0,0,0,1.000,1.000,1.000,-90.00,180.00,-45.00,OPEN,0
660323.697,0,0,0,1.000,1.000,1.000,-90.00,180.00,-45.00,OPEN,0
660323.747,0,0,0,1.000,1.000,1.000,-90.00,180.00,-45.00,OPEN,0
660323.797,0,0,0,1.000,1.000,1.000,-90.00,180.00,-45.00,OPEN,0
660323.847,0,0,0,1.000,1.000,1.000,-90.00,180.00,-45.00,OPEN,0
660323.897,0,0,0,1.000,1.000,1.000,-90.00,180.00,-45.00,OPEN,0
660323.947,0,0,0,1.000,1.000,1.000,-90.00,180.00,-45.00,OPEN,0
660323.997,0,0,0,1.000,1.000,1.000,-90.00,180.00,-45.00,OPEN,0
660324.047,0,0,0,1.000,1.000,1.000,-90.00,180.00,-45.00,OPEN,0
660324.097,0,0,0,1.000,1.000,1.000,-90.00,180.00,-45.00,OPEN,0
660324.147,0,0,0,1.000,1.000,1.000,-90.00,180.00,-45.00,OPEN,0
660324.197,0,0,0,1.000,1.000,1.000,-90.00,180.00,-45.00,OPEN,0
660324.247,0,0,0,1.000,1.000,1.000,-90.00,180.00,-45.00,OPEN,0
660324.298,0,0,0,1.000,1.000,1.000,-90.00,180.00,-45.00,OPEN,0
660324.348,0,0,0,1.000,1.000,1.000,-90.00,180.00,-45.00,OPEN,0
660324.397,0,0,0,1.000,1.000,1.000,-90.00,180.00,-45.00,OPEN,0
660324.447,0,0,0,1.000,1.000,1.000,-90.00,180.00,-45.00,OPEN,0
660324.497,0,0,0,1.000,1.000,1.000,-90.00,180.00,-45.00,OPEN,0
660324.548,0,0,0,1.000,1.000,1.000,-90.00,180.00,-45.00,OPEN,0
660324.597,0,0,0,1.000,1.000,1.000,-90.00,180.00,-45.00,OPEN,0
660324.647,0,0,0,1.000,1.000,1.000,-90.00,180.00,-45.00,OPEN,0
660324.699,0,0,0,1.000,1.000,1.000,-90.00,180.00,-45.00,OPEN,0
660324.747,0,0,0,1.000,1.000,1.000,-90.00,180.00,-45.00,OPEN,0
660324.797,0,0,0,1.000,1.000,1.000,-90.00,180.00,-45.00,OPEN,0
660324.846,0,0,0,1.000,1.000,1.000,-90.00,180.00,-45.00,OPEN,0
660324.897,0,0,0,1.000,1.000,1.000,-90.00,180.00,-45.00,OPEN,0
660324.947,0,0,0,1.000,1.000,1.000,-90.00,180.00,-45.00,OPEN,0
660324.997,0,0,0,1.000,1.000,1.000,-90.00,180.00,-45.00,OPEN,0
660325.048,0,0,0,1.000,1.000,1.000,-90.00,180.00,-45.00,OPEN,0
660325.098,0,0,0,1.000,1.000,1.000,-90.00,180.00,-45.00,OPEN,0
660325.147,0,0,0,1.000,1.000,1.000,-90.00,180.00,-45.00,OPEN,0
660325.197,0,0,0,1.000,1.000,1.000,-90.00,180.00,-45.00,OPEN,0
660325.247,0,0,0,1.000,1.000,1.000,-90.00,180.00,-45.00,OPEN,0
660325.297,0,0,0,1.000,1.000,1.000,-90.00,180.00,-45.00,OPEN,0
660325.347,0,0,0,1.000,1.000,1.000,-90.00,180.00,-45.00,OPEN,0
660325.397,0,0,0,1.000,1.000,1.000,-90.00,180.00,-45.00,OPEN,0
660325.447,0,0,0,1.000,1.000,1.000,-90.00,180.00,-45.00,OPEN,0
660325.497,0,0,0,1.000,1.000,1.000,-90.00,180.00,-45.00,OPEN,0
660325.548,0,0,0,1.000,1.000,1.000,-90.00,180.00,-45.00,OPEN,0
660325.597,0,0,0,1.000,1.000,1.000,-90.00,180.00,-45.00,OPEN,0
660325.647,0,0,0,1.000,1.000,1.000,-90.00,180.00,-45.00,OPEN,0
660325.697,0,0,0,1.000,1.000,1.000,-90.00,180.00,-45.00,OPEN,0
660325.747,0,0,0,1.000,1.000,1.000,-90.00,180.00,-45.00,OPEN,0
660325.798,0,0,0,1.000,1.000,1.000,-90.00,180.00,-45.00,OPEN,0
660325.847,0,0,0,1.000,1.000,1.000,-90.00,180.00,-45.00,OPEN,0
660325.896,0,0,0,1.000,1.000,1.000,-90.00,180.00,-45.00,OPEN,0
660325.946,0,0,0,1.000,1.000,1.000,-90.00,180.00,-45.00,OPEN,0
660325.997,0,0,0,1.000,1.000,1.000,-90.00,180.00,-45.00,OPEN,0
660326.047,0,0,0,1.000,1.000,1.000,-90.00,180.00,-45.00,OPEN,0
660326.097,0,0,0,1.000,1.000,1.000,-90.00,180.00,-45.00,OPEN,0
660326.147,0,0,0,1.000,1.000,1.000,-90.00,180.00,-45.00,OPEN,0
660326.197,0,0,0,1.000,1.000,1.000,-90.00,180.00,-45.00,OPEN,0
660326.247,0,0,0,1.000,1.000,1.000,-90.00,180.00,-45.00,OPEN,0
660326.297,0,0,0,1.000,1.000,1.000,-90.00,180.00,-45.00,OPEN,0
660326.347,0,0,0,1.000,1.000,1.000,-90.00,180.00,-45.00,OPEN,0
660326.397,0,0,0,1.000,1.000,1.000,-90.00,180.00,-45.00,OPEN,0
660326.446,0,0,0,1.000,1.000,1.000,-90.00,180.00,-45.00,OPEN,0
660326.497,0,0,0,1.000,1.000,1.000,-90.00,180.00,-45.00,OPEN,0
660326.547,0,0,0,1.000,1.000,1.000,-90.00,180.00,-45.00,OPEN,0
660326.597,0,0,0,1.000,1.000,1.000,-90.00,180.00,-45.00,OPEN,0
660326.647,0,0,0,1.000,1.000,1.000,-90.00,180.00,-45.00,OPEN,0
660326.697,0,0,0,1.000,1.000,1.000,-90.00,180.00,-45.00,OPEN,0
660326.747,0,0,0,1.000,1.000,1.000,-90.00,180.00,-45.00,OPEN,0
660326.798,0,0,0,1.000,1.000,1.000,-90.00,180.00,-45.00,OPEN,0
660326.847,0,0,0,0.999,1.000,1.000,-90.00,180.00,-45.00,OPEN,0
660326.897,0,0,0,0.997,1.000,1.000,-90.00,180.00,-45.00,OPEN,0
660326.947,0,0,0,0.997,1.000,1.000,-90.00,180.00,-45.00,OPEN,0
660326.997,0,0,0,0.991,1.000,1.000,-90.00,180.00,-45.00,OPEN,0
660327.047,0,0,0,0.989,1.000,1.000,-90.00,180.00,-45.00,OPEN,0
660327.097,0,0,0,0.999,1.000,1.000,-90.00,180.00,-45.00,OPEN,0
660327.148,0,0,0,1.000,1.000,1.000,-90.00,180.00,-45.00,OPEN,0
660327.203,0,0,0,1.000,1.000,1.000,-90.00,180.00,-45.00,OPEN,0
660327.250,0,0,0,1.000,1.000,1.000,-90.00,180.00,-45.00,OPEN,0
660327.298,0,0,0,1.000,1.000,1.000,-90.00,180.00,-45.00,OPEN,0
660327.347,0,0,0,1.000,1.000,1.000,-90.00,180.00,-45.00,OPEN,0
660327.397,0,0,0,1.000,1.000,1.000,-90.00,180.00,-45.00,OPEN,0
660327.447,0,0,0,1.000,1.000,1.000,-90.00,180.00,-45.00,OPEN,0
660327.498,0,0,0,1.000,1.000,1.000,-90.00,180.00,-45.00,OPEN,0
660327.548,0,0,0,1.000,1.000,1.000,-90.00,180.00,-45.00,OPEN,0
660327.598,0,0,0,1.000,1.000,1.000,-90.00,180.00,-45.00,OPEN,0
660327.647,0,0,0,1.000,1.000,1.000,-90.00,180.00,-45.00,OPEN,0
660327.697,0,0,0,1.000,1.000,1.000,-90.00,180.00,-45.00,OPEN,0
660327.747,0,0,0,1.000,1.000,1.000,-90.00,180.00,-45.00,OPEN,0
660327.797,0,0,0,1.000,1.000,1.000,-90.00,180.00,-45.00,OPEN,0
660327.847,0,0,0,1.000,1.000,1.000,-90.00,180.00,-45.00,OPEN,0
660327.898,0,0,0,1.000,1.000,1.000,-90.00,180.00,-45.00,OPEN,0
660327.947,0,0,0,1.000,1.000,1.000,-90.00,180.00,-45.00,OPEN,0
660327.997,0,0,0,1.000,1.000,1.000,-90.00,180.00,-45.00,OPEN,0
660328.047,0,0,0,1.000,1.000,1.000,-90.00,180.00,-45.00,OPEN,0
660328.098,0,0,0,1.000,1.000,1.000,-90.00,180.00,-45.00,OPEN,0
660328.148,0,0,0,1.000,1.000,1.000,-90.00,180.00,-45.00,OPEN,0
660328.198,0,0,0,1.000,1.000,1.000,-90.00,180.00,-45.00,OPEN,0
660328.247,0,0,0,1.000,1.000,1.000,-90.00,180.00,-45.00,OPEN,0
660328.297,0,0,0,1.000,1.000,1.000,-90.00,180.00,-45.00,OPEN,0
660328.347,0,0,0,1.000,1.000,1.000,-90.00,180.00,-45.00,OPEN,0
660328.397,0,0,0,1.000,1.000,1.000,-90.00,180.00,-45.00,OPEN,0
660328.447,0,0,0,0.863,1.000,1.000,-90.00,180.00,-45.00,OPEN,0
660328.497,0,0,0,0.956,1.000,1.000,-90.00,180.00,-45.00,OPEN,0
660328.546,0,0,0,0.993,1.000,1.000,-90.00,180.00,-45.00,OPEN,0
660328.597,0,0,0,0.993,1.000,1.000,-90.00,180.00,-45.00,OPEN,0
660328.647,0,0,0,0.970,1.000,1.000,-90.00,180.00,-45.00,OPEN,0
660328.697,0,0,0,0.616,1.000,1.000,-90.00,180.00,-45.00,OPEN,0
660328.747,0,0,0,0.909,1.000,1.000,-90.00,180.00,-45.00,OPEN,0
660328.797,0,0,0,0.990,1.000,1.000,-90.00,180.00,-45.00,OPEN,0
660328.847,0,0,0,0.994,1.000,1.000,-90.00,180.00,-45.00,OPEN,0
660328.897,0,0,0,0.995,1.000,1.000,-90.00,180.00,-45.00,OPEN,0
660328.947,0,0,0,0.996,1.000,1.000,-90.00,180.00,-45.00,OPEN,0
660328.998,0,0,0,0.995,1.000,1.000,-90.00,180.00,-45.00,OPEN,0
660329.047,0,0,0,0.993,1.000,1.000,-90.00,180.00,-45.00,OPEN,0
660329.097,3,0,0,0.990,1.000,1.000,-90.00,180.00,-45.00,CLOSED,0
660329.148,3,0,0,0.985,1.000,1.000,-90.00,180.00,-45.00,CLOSED,0
660329.198,3,0,0,0.983,1.000,1.000,-90.00,180.00,-45.00,CLOSED,0
660329.247,3,0,0,0.985,1.000,1.000,-90.00,180.00,-45.00,CLOSED,0
660329.297,3,0,0,0.989,1.000,1.000,-90.00,180.00,-45.00,CLOSED,0
660329.347,3,0,0,0.995,1.000,1.000,-90.00,180.00,-45.00,CLOSED,0
660329.397,3,0,0,0.997,1.000,1.000,-90.00,180.00,-45.00,CLOSED,0
660329.447,3,0,0,0.999,1.000,1.000,-90.00,180.00,-45.00,CLOSED,0
660329.497,3,0,0,0.999,1.000,1.000,-90.00,180.00,-45.00,CLOSED,0
660329.547,3,0,0,1.000,1.000,1.000,-90.00,180.00,-45.00,CLOSED,0
660329.597,3,0,0,1.000,1.000,1.000,-90.00,180.00,-45.00,CLOSED,0
660329.647,3,0,0,1.000,1.000,1.000,-90.00,180.00,-45.00,CLOSED,0
660329.697,3,0,0,1.000,1.000,1.000,-90.00,180.00,-45.00,CLOSED,0
660329.748,3,0,0,1.000,1.000,1.000,-90.00,180.00,-45.00,CLOSED,0
660329.797,3,0,0,1.000,1.000,1.000,-90.00,180.00,-45.00,CLOSED,0
660329.847,3,0,0,1.000,1.000,1.000,-90.00,180.00,-45.00,CLOSED,0
660329.897,3,0,0,1.000,1.000,1.000,-90.00,180.00,-45.00,CLOSED,0
660329.947,3,0,0,1.000,1.000,1.000,-90.00,180.00,-45.00,CLOSED,0
660329.998,3,0,0,1.000,1.000,1.000,-90.00,180.00,-45.00,CLOSED,0
660330.047,3,0,0,1.000,1.000,1.000,-90.00,180.00,-45.00,CLOSED,0
660330.097,3,0,0,1.000,1.000,1.000,-90.00,180.00,-45.00,CLOSED,0
660330.147,3,0,0,1.000,1.000,1.000,-90.00,180.00,-45.00,CLOSED,0
660330.207,3,0,0,1.000,1.000,1.000,-90.00,180.00,-45.00,CLOSED,0
660330.248,3,0,0,1.000,1.000,1.000,-90.00,180.00,-45.00,CLOSED,0
660330.298,3,0,0,1.000,1.000,1.000,-90.00,180.00,-45.00,CLOSED,0
660330.347,3,0,0,0.999,1.000,1.000,-90.00,180.00,-45.00,CLOSED,0
660330.397,3,0,0,0.997,1.000,1.000,-90.00,180.00,-45.00,CLOSED,0
660330.447,3,0,0,0.992,1.000,1.000,-90.00,180.00,-45.00,CLOSED,0
660330.497,3,0,0,0.987,1.000,1.000,-90.00,180.00,-45.00,CLOSED,0
660330.547,3,0,0,0.985,1.000,1.000,-90.00,180.00,-45.00,CLOSED,0
660330.598,3,0,0,0.989,1.000,1.000,-90.00,180.00,-45.00,CLOSED,0
660330.647,3,0,0,0.993,1.000,1.000,-90.00,180.00,-45.00,CLOSED,0
660330.697,3,0,0,0.996,1.000,1.000,-90.00,180.00,-45.00,CLOSED,0
660330.748,3,0,0,0.997,1.000,1.000,-90.00,180.00,-45.00,CLOSED,0
660330.797,3,0,0,0.998,1.000,1.000,-90.00,180.00,-45.00,CLOSED,0
660330.847,3,0,0,0.998,1.000,1.000,-90.00,180.00,-45.00,CLOSED,0
660330.897,3,0,0,0.999,1.000,1.000,-90.00,180.00,-45.00,CLOSED,0
660330.947,3,0,0,0.999,1.000,1.000,-90.00,180.00,-45.00,CLOSED,0
660330.998,3,0,0,0.999,1.000,1.000,-90.00,180.00,-45.00,CLOSED,0
660331.047,3,0,0,1.000,1.000,1.000,-90.00,180.00,-45.00,CLOSED,0
660331.097,3,0,0,1.000,1.000,1.000,-90.00,180.00,-45.00,CLOSED,0
660331.148,3,0,0,1.000,1.000,1.000,-90.00,180.00,-45.00,CLOSED,0
660331.197,3,0,0,1.000,1.000,1.000,-90.00,180.00,-45.00,CLOSED,0
660331.247,3,0,0,1.000,1.000,1.000,-90.00,180.00,-45.00,CLOSED,0
660331.297,3,0,0,1.000,1.000,1.000,-90.00,180.00,-45.00,CLOSED,0
660331.347,3,0,0,1.000,1.000,1.000,-90.00,180.00,-45.00,CLOSED,0
660331.397,3,0,0,1.000,1.000,1.000,-90.00,180.00,-45.00,CLOSED,0
660331.447,3,0,0,1.000,1.000,1.000,-90.00,180.00,-45.00,CLOSED,0
660331.497,3,0,0,1.000,1.000,1.000,-90.00,180.00,-45.00,CLOSED,0
660331.551,3,0,0,1.000,1.000,1.000,-90.00,180.00,-45.00,CLOSED,0
660331.597,3,0,0,1.000,1.000,1.000,-90.00,180.00,-45.00,CLOSED,0
660331.648,3,0,0,1.000,1.000,1.000,-90.00,180.00,-45.00,CLOSED,0
660331.698,3,0,0,1.000,1.000,1.000,-90.00,180.00,-45.00,CLOSED,0
660331.747,3,0,0,1.000,1.000,1.000,-90.00,180.00,-45.00,CLOSED,0
660331.797,3,0,0,1.000,1.000,1.000,-90.00,180.00,-45.00,CLOSED,0
660331.847,3,0,0,1.000,1.000,1.000,-90.00,180.00,-45.00,CLOSED,0
660331.897,3,0,0,1.000,1.000,1.000,-90.00,180.00,-45.00,CLOSED,0
660331.947,3,0,0,1.000,1.000,1.000,-90.00,180.00,-45.00,CLOSED,0
660331.997,3,0,0,1.000,1.000,1.000,-90.00,180.00,-45.00,CLOSED,0
660332.047,3,0,0,1.000,1.000,1.000,-90.00,180.00,-45.00,CLOSED,0
660332.098,3,0,0,1.000,1.000,1.000,-90.00,180.00,-45.00,CLOSED,0
660332.147,3,0,0,1.000,1.000,1.000,-90.00,180.00,-45.00,CLOSED,0
660332.197,3,0,0,1.000,1.000,1.000,-90.00,180.00,-45.00,CLOSED,0
660332.247,3,0,0,1.000,1.000,1.000,-90.00,180.00,-45.00,CLOSED,0
660332.297,3,0,0,1.000,1.000,1.000,-90.00,180.00,-45.00,CLOSED,0
660332.347,3,0,0,1.000,1.000,1.000,-90.00,180.00,-45.00,CLOSED,0
660332.398,3,0,0,1.000,1.000,1.000,-90.00,180.00,-45.00,CLOSED,0
660332.447,3,0,0,1.000,1.000,1.000,-90.00,180.00,-45.00,CLOSED,0
660332.508,3,0,0,1.000,1.000,1.000,-90.00,180.00,-45.00,CLOSED,0
660332.548,3,0,0,1.000,1.000,1.000,-90.00,180.00,-45.00,CLOSED,0
660332.597,3,0,0,1.000,1.000,1.000,-90.00,180.00,-45.00,CLOSED,0
660332.648,3,0,0,1.000,1.000,1.000,-90.00,180.00,-45.00,CLOSED,0
660332.697,3,0,0,1.000,1.000,1.000,-90.00,180.00,-45.00,CLOSED,0
660332.747,3,0,0,1.000,1.000,1.000,-90.00,180.00,-45.00,CLOSED,0
660332.798,3,0,0,1.000,1.000,1.000,-90.00,180.00,-45.00,CLOSED,0
660332.847,3,0,0,1.000,1.000,1.000,-90.00,180.00,-45.00,CLOSED,0
660332.897,3,0,0,1.000,1.000,1.000,-90.00,180.00,-45.00,CLOSED,0
660332.947,3,0,0,1.000,1.000,1.000,-90.00,180.00,-45.00,CLOSED,0
660332.997,3,0,0,1.000,1.000,1.000,-90.00,180.00,-45.00,CLOSED,0
660333.047,3,0,0,1.000,1.000,1.000,-90.00,180.00,-45.00,CLOSED,0
660333.097,3,0,0,1.000,1.000,1.000,-90.00,180.00,-45.00,CLOSED,0
660333.147,3,0,0,1.000,1.000,1.000,-90.00,180.00,-45.00,CLOSED,0
660333.198,3,0,0,1.000,1.000,1.000,-90.00,180.00,-45.00,CLOSED,0
660333.247,3,0,0,1.000,1.000,1.000,-90.00,180.00,-45.00,CLOSED,0
660333.297,3,0,0,1.000,1.000,1.000,-90.00,180.00,-45.00,CLOSED,0
660333.347,3,0,0,1.000,1.000,1.000,-90.00,180.00,-45.00,CLOSED,0
660333.397,3,0,0,1.000,1.000,1.000,-90.00,180.00,-45.00,CLOSED,0
660333.447,3,0,0,1.000,1.000,1.000,-90.00,180.00,-45.00,CLOSED,0
660333.497,3,0,0,1.000,1.000,1.000,-90.00,180.00,-45.00,CLOSED,0
660333.547,3,0,0,1.000,1.000,1.000,-90.00,180.00,-45.00,CLOSED,0
660333.597,3,0,0,1.000,1.000,1.000,-90.00,180.00,-45.00,CLOSED,0
660333.647,3,0,0,1.000,1.000,1.000,-90.00,180.00,-45.00,CLOSED,0
660333.697,3,0,0,1.000,1.000,1.000,-90.00,180.00,-45.00,CLOSED,0
660333.748,3,0,0,0.999,1.000,1.000,-90.00,180.00,-45.00,CLOSED,0
660333.797,3,0,0,0.999,1.000,1.000,-90.00,180.00,-45.00,CLOSED,0
660333.847,3,0,0,0.999,1.000,1.000,-90.00,180.00,-45.00,CLOSED,0
660333.897,3,0,0,1.000,1.000,1.000,-90.00,180.00,-45.00,CLOSED,0
660333.947,3,0,0,1.000,1.000,1.000,-90.00,180.00,-45.00,CLOSED,0
660333.997,3,0,0,1.000,1.000,1.000,-90.00,180.00,-45.00,CLOSED,0
660334.047,3,0,0,1.000,1.000,1.000,-90.00,180.00,-45.00,CLOSED,0
660334.097,3,0,0,1.000,1.000,1.000,-90.00,180.00,-45.00,CLOSED,0
660334.147,3,0,0,1.000,1.000,1.000,-90.00,180.00,-45.00,CLOSED,0
660334.197,3,0,0,1.000,1.000,1.000,-90.00,180.00,-45.00,CLOSED,0
660334.247,3,0,0,1.000,1.000,1.000,-90.00,180.00,-45.00,CLOSED,0
660334.298,3,0,0,1.000,1.000,1.000,-90.00,180.00,-45.00,CLOSED,0
660334.347,3,0,0,1.000,1.000,1.000,-90.00,180.00,-45.00,CLOSED,0
660334.398,3,0,0,1.000,1.000,1.000,-90.00,180.00,-45.00,CLOSED,0
660334.447,3,0,0,1.000,1.000,1.000,-90.00,180.00,-45.00,CLOSED,0
660334.497,3,0,0,1.000,1.000,1.000,-90.00,180.00,-45.00,CLOSED,0
660334.547,3,0,0,1.000,1.000,1.000,-90.00,180.00,-45.00,CLOSED,0
660334.597,3,0,0,1.000,1.000,1.000,-90.00,180.00,-45.00,CLOSED,0
660334.647,3,0,0,1.000,1.000,1.000,-90.00,180.00,-45.00,CLOSED,0
660334.698,3,0,0,0.984,1.000,1.000,-90.00,180.00,-45.00,CLOSED,0
660334.747,3,0,0,0.751,1.000,1.000,-90.00,180.00,-45.00,CLOSED,0
660334.798,3,0,0,0.676,1.000,1.000,-90.00,180.00,-45.00,CLOSED,0
660334.847,3,0,0,0.897,1.000,1.000,-90.00,180.00,-45.00,CLOSED,0
660334.897,3,0,0,0.933,1.000,1.000,-90.00,180.00,-45.00,CLOSED,0
660334.948,3,0,0,0.995,1.000,1.000,-90.00,180.00,-45.00,CLOSED,0
660334.997,3,0,0,1.000,1.000,1.000,-90.00,180.00,-45.00,CLOSED,0
660335.047,3,0,0,1.000,1.000,1.000,-90.00,180.00,-45.00,CLOSED,0
660335.098,3,0,0,1.000,1.000,1.000,-90.00,180.00,-45.00,CLOSED,0
660335.147,3,0,0,1.000,1.000,1.000,-90.00,180.00,-45.00,CLOSED,0
660335.197,0,0,0,1.000,1.000,1.000,-90.00,180.00,-45.00,CLOSED,0
660335.248,0,0,0,1.000,1.000,1.000,-90.00,180.00,-45.00,CLOSED,0
660335.297,0,0,0,1.000,1.000,1.000,-90.00,180.00,-45.00,CLOSED,0
660335.347,0,0,0,1.000,1.000,1.000,-90.00,180.00,-45.00,CLOSED,0
660335.397,0,0,0,1.000,1.000,1.000,-90.00,180.00,-45.00,CLOSED,0
660335.447,0,0,0,1.000,1.000,1.000,-90.00,180.00,-45.00,CLOSED,0
660335.497,0,0,0,1.000,1.000,1.000,-90.00,180.00,-45.00,CLOSED,0
660335.547,0,0,0,1.000,1.000,1.000,-90.00,180.00,-45.00,CLOSED,0
660335.597,0,0,0,1.000,1.000,1.000,-90.00,180.00,-45.00,CLOSED,0
660335.647,0,0,0,1.000,1.000,1.000,-90.00,180.00,-45.00,CLOSED,0
660335.697,0,0,0,1.000,1.000,1.000,-90.00,180.00,-45.00,CLOSED,0
660335.747,0,0,0,1.000,1.000,1.000,-90.00,180.00,-45.00,CLOSED,0
660335.797,0,0,0,1.000,1.000,1.000,-90.00,180.00,-45.00,CLOSED,0
660335.847,0,0,0,1.000,1.000,1.000,-90.00,180.00,-45.00,CLOSED,0
660335.897,0,0,0,1.000,1.000,1.000,-90.00,180.00,-45.00,CLOSED,0
660335.947,0,0,0,1.000,1.000,1.000,-90.00,180.00,-45.00,CLOSED,0
660335.997,0,0,0,1.000,1.000,1.000,-90.00,180.00,-45.00,CLOSED,0
660336.046,0,0,0,1.000,1.000,1.000,-90.00,180.00,-45.00,CLOSED,0
660336.097,0,0,0,1.000,1.000,1.000,-90.00,180.00,-45.00,CLOSED,0
660336.147,0,0,0,1.000,1.000,1.000,-90.00,180.00,-45.00,CLOSED,0
660336.197,0,0,0,1.000,1.000,1.000,-90.00,180.00,-45.00,CLOSED,0
660336.247,0,0,0,1.000,1.000,1.000,-90.00,180.00,-45.00,CLOSED,0
660336.297,0,0,0,1.000,1.000,1.000,-90.00,180.00,-45.00,CLOSED,0
660336.347,0,0,0,1.000,1.000,1.000,-90.00,180.00,-45.00,CLOSED,0
660336.397,0,0,0,1.000,1.000,1.000,-90.00,180.00,-45.00,CLOSED,0
660336.447,0,0,0,1.000,1.000,1.000,-90.00,180.00,-45.00,CLOSED,0
660336.497,0,0,0,1.000,1.000,1.000,-90.00,180.00,-45.00,CLOSED,0
660336.547,0,0,0,1.000,1.000,1.000,-90.00,180.00,-45.00,CLOSED,0
660336.597,0,0,0,1.000,1.000,1.000,-90.00,180.00,-45.00,CLOSED,0
660336.647,0,0,0,1.000,1.000,1.000,-90.00,180.00,-45.00,CLOSED,0
660336.697,0,0,0,1.000,1.000,1.000,-90.00,180.00,-45.00,CLOSED,0
660336.747,0,0,0,1.000,1.000,1.000,-90.00,180.00,-45.00,CLOSED,0
660336.797,0,0,0,1.000,1.000,1.000,-90.00,180.00,-45.00,CLOSED,0
660336.847,0,0,0,1.000,1.000,1.000,-90.00,180.00,-45.00,CLOSED,0
660336.897,0,0,0,1.000,1.000,1.000,-90.00,180.00,-45.00,CLOSED,0
660336.947,0,0,0,1.000,1.000,1.000,-90.00,180.00,-45.00,CLOSED,0
660336.997,0,0,0,1.000,1.000,1.000,-90.00,180.00,-45.00,CLOSED,0
660337.047,0,0,0,1.000,1.000,1.000,-90.00,180.00,-45.00,CLOSED,0
660337.102,0,0,0,1.000,1.000,1.000,-90.00,180.00,-45.00,CLOSED,0
660337.148,0,0,0,1.000,1.000,1.000,-90.00,180.00,-45.00,CLOSED,0
660337.197,0,0,0,1.000,1.000,1.000,-90.00,180.00,-45.00,CLOSED,0
660337.247,0,0,0,1.000,1.000,1.000,-90.00,180.00,-45.00,CLOSED,0
660337.298,0,0,0,1.000,1.000,1.000,-90.00,180.00,-45.00,CLOSED,0
660337.347,0,0,0,1.000,1.000,1.000,-90.00,180.00,-45.00,CLOSED,0
660337.397,0,0,0,1.000,1.000,1.000,-90.00,180.00,-45.00,CLOSED,0
660337.447,0,0,0,1.000,1.000,1.000,-90.00,180.00,-45.00,CLOSED,0
660337.497,0,0,0,1.000,1.000,1.000,-90.00,180.00,-45.00,CLOSED,0
660337.547,0,0,0,1.000,1.000,1.000,-90.00,180.00,-45.00,CLOSED,0
660337.598,0,0,0,1.000,1.000,1.000,-90.00,180.00,-45.00,CLOSED,0
660337.647,0,0,0,1.000,1.000,1.000,-90.00,180.00,-45.00,CLOSED,0
660337.697,0,0,0,1.000,1.000,1.000,-90.00,180.00,-45.00,CLOSED,0
660337.747,0,0,0,1.000,1.000,1.000,-90.00,180.00,-45.00,CLOSED,0
660337.797,0,0,0,1.000,1.000,1.000,-90.00,180.00,-45.00,CLOSED,0
660337.847,0,0,0,1.000,1.000,1.000,-90.00,180.00,-45.00,CLOSED,0
660337.897,0,0,0,1.000,1.000,1.000,-90.00,180.00,-45.00,CLOSED,0
660337.947,0,0,0,1.000,1.000,1.000,-90.00,180.00,-45.00,CLOSED,0
660337.997,0,0,0,1.000,1.000,1.000,-90.00,180.00,-45.00,CLOSED,0
660338.047,0,0,0,1.000,1.000,1.000,-90.00,180.00,-45.00,CLOSED,0
660338.097,0,0,0,1.000,1.000,1.000,-90.00,180.00,-45.00,CLOSED,0
660338.147,0,0,0,1.000,1.000,1.000,-90.00,180.00,-45.00,CLOSED,0
660338.197,0,0,0,1.000,1.000,1.000,-90.00,180.00,-45.00,CLOSED,0
660338.248,0,0,0,1.000,1.000,1.000,-90.00,180.00,-45.00,CLOSED,0
660338.298,0,0,0,1.000,1.000,1.000,-90.00,180.00,-45.00,CLOSED,0
660338.347,0,0,0,1.000,1.000,1.000,-90.00,180.00,-45.00,CLOSED,0
660338.397,0,0,0,1.000,1.000,1.000,-90.00,180.00,-45.00,CLOSED,0
660338.447,0,0,0,1.000,1.000,1.000,-90.00,180.00,-45.00,CLOSED,0
660338.497,0,0,0,1.000,1.000,1.000,-90.00,180.00,-45.00,CLOSED,0
660338.547,0,0,0,1.000,1.000,1.000,-90.00,180.00,-45.00,CLOSED,0
660338.598,0,0,0,1.000,1.000,1.000,-90.00,180.00,-45.00,CLOSED,0
660338.647,0,0,0,1.000,1.000,1.000,-90.00,180.00,-45.00,CLOSED,0
660338.698,0,0,0,1.000,1.000,1.000,-90.00,180.00,-45.00,CLOSED,0
660338.747,0,0,0,1.000,1.000,1.000,-90.00,180.00,-45.00,CLOSED,0
660338.797,0,0,0,1.000,1.000,1.000,-90.00,180.00,-45.00,CLOSED,0
660338.847,0,0,0,1.000,1.000,1.000,-90.00,180.00,-45.00,CLOSED,0
660338.897,0,0,0,1.000,1.000,1.000,-90.00,180.00,-45.00,CLOSED,0
660338.947,0,0,0,1.000,1.000,1.000,-90.00,180.00,-45.00,CLOSED,0
660338.997,0,0,0,1.000,1.000,1.000,-90.00,180.00,-45.00,CLOSED,0
660339.047,0,0,0,1.000,1.000,1.000,-90.00,180.00,-45.00,CLOSED,0
660339.097,0,0,0,1.000,1.000,1.000,-90.00,180.00,-45.00,CLOSED,0
660339.148,0,0,0,1.000,1.000,1.000,-90.00,180.00,-45.00,CLOSED,0
660339.198,0,0,0,1.000,1.000,1.000,-90.00,180.00,-45.00,CLOSED,0
660339.247,0,0,0,1.000,1.000,1.000,-90.00,180.00,-45.00,CLOSED,0
660339.298,0,0,0,1.000,1.000,1.000,-90.00,180.00,-45.00,CLOSED,0
660339.347,0,0,0,1.000,1.000,1.000,-90.00,180.00,-45.00,CLOSED,0
660339.397,0,0,0,1.000,1.000,1.000,-90.00,180.00,-45.00,CLOSED,0
660339.447,0,0,0,1.000,1.000,1.000,-90.00,180.00,-45.00,CLOSED,0
660339.497,0,0,0,1.000,1.000,1.000,-90.00,180.00,-45.00,CLOSED,0
660339.547,0,0,0,1.000,1.000,1.000,-90.00,180.00,-45.00,CLOSED,0
660339.597,0,0,0,1.000,1.000,1.000,-90.00,180.00,-45.00,CLOSED,0
660339.647,0,0,0,1.000,1.000,1.000,-90.00,180.00,-45.00,CLOSED,0
660339.697,0,0,0,1.000,1.000,1.000,-90.00,180.00,-45.00,CLOSED,0
660339.748,0,0,0,1.000,1.000,1.000,-90.00,180.00,-45.00,CLOSED,0
660339.802,0,0,0,1.000,1.000,1.000,-90.00,180.00,-45.00,CLOSED,0
660339.850,0,0,0,1.000,1.000,1.000,-90.00,180.00,-45.00,CLOSED,0
660339.897,0,0,0,1.000,1.000,1.000,-90.00,180.00,-45.00,CLOSED,0
660339.947,0,0,0,1.000,1.000,1.000,-90.00,180.00,-45.00,CLOSED,0
660339.997,0,0,0,1.000,1.000,1.000,-90.00,180.00,-45.00,CLOSED,0
660340.048,0,0,0,1.000,1.000,1.000,-90.00,180.00,-45.00,CLOSED,0
660340.097,0,0,0,1.000,1.000,1.000,-90.00,180.00,-45.00,CLOSED,0
660340.147,0,0,0,1.000,1.000,1.000,-90.00,180.00,-45.00,CLOSED,0
660340.197,0,0,0,1.000,1.000,1.000,-90.00,180.00,-45.00,CLOSED,0
660340.248,0,0,0,1.000,1.000,1.000,-90.00,180.00,-45.00,CLOSED,0
660340.298,0,0,0,1.000,1.000,1.000,-90.00,180.00,-45.00,CLOSED,0
660340.347,0,0,0,1.000,1.000,1.000,-90.00,180.00,-45.00,CLOSED,0
660340.397,0,0,0,1.000,1.000,1.000,-90.00,180.00,-45.00,CLOSED,0
660340.447,0,0,0,1.000,1.000,1.000,-90.00,180.00,-45.00,CLOSED,0
660340.497,0,0,0,1.000,1.000,1.000,-90.00,180.00,-45.00,CLOSED,0
660340.548,0,0,0,1.000,1.000,1.000,-90.00,180.00,-45.00,CLOSED,0
660340.597,0,0,0,1.000,1.000,1.000,-90.00,180.00,-45.00,CLOSED,0
660340.647,0,0,0,1.000,1.000,1.000,-90.00,180.00,-45.00,CLOSED,0
660340.697,0,0,0,1.000,1.000,1.000,-90.00,180.00,-45.00,CLOSED,0
660340.747,0,0,0,1.000,1.000,1.000,-90.00,180.00,-45.00,CLOSED,0
660340.797,0,0,0,1.000,1.000,1.000,-90.00,180.00,-45.00,CLOSED,0
660340.847,0,0,0,1.000,1.000,1.000,-90.00,180.00,-45.00,CLOSED,0
660340.900,0,0,0,1.000,1.000,1.000,-90.00,180.00,-45.00,CLOSED,0
660340.948,0,0,0,1.000,1.000,1.000,-90.00,180.00,-45.00,CLOSED,0
660340.997,0,0,0,1.000,1.000,1.000,-90.00,180.00,-45.00,CLOSED,0
660341.047,0,0,0,1.000,1.000,1.000,-90.00,180.00,-45.00,CLOSED,0
660341.098,0,0,0,1.000,1.000,1.000,-90.00,180.00,-45.00,CLOSED,0
660341.147,0,0,0,1.000,1.000,1.000,-90.00,180.00,-45.00,CLOSED,0
660341.197,0,0,0,1.000,1.000,1.000,-90.00,180.00,-45.00,CLOSED,0
660341.247,0,0,0,1.000,1.000,1.000,-90.00,180.00,-45.00,CLOSED,0
660341.297,0,0,0,1.000,1.000,1.000,-90.00,180.00,-45.00,CLOSED,0
660341.347,0,0,0,1.000,1.000,1.000,-90.00,180.00,-45.00,CLOSED,0
660341.397,0,0,0,1.000,1.000,1.000,-90.00,180.00,-45.00,CLOSED,0
660341.447,0,0,0,1.000,1.000,1.000,-90.00,180.00,-45.00,CLOSED,0
660341.497,0,0,0,1.000,1.000,1.000,-90.00,180.00,-45.00,CLOSED,0
660341.547,0,0,0,1.000,1.000,1.000,-90.00,180.00,-45.00,CLOSED,0
660341.597,0,0,0,1.000,1.000,1.000,-90.00,180.00,-45.00,CLOSED,0
660341.647,0,0,0,1.000,1.000,1.000,-90.00,180.00,-45.00,CLOSED,0
660341.697,0,0,0,1.000,1.000,1.000,-90.00,180.00,-45.00,CLOSED,0
660341.747,0,0,0,1.000,1.000,1.000,-90.00,180.00,-45.00,CLOSED,0
660341.797,0,0,0,1.000,1.000,1.000,-90.00,180.00,-45.00,CLOSED,0
660341.847,0,0,0,1.000,1.000,1.000,-90.00,180.00,-45.00,CLOSED,0
660341.897,0,0,0,1.000,1.000,1.000,-90.00,180.00,-45.00,CLOSED,0
660341.947,0,0,0,1.000,1.000,1.000,-90.00,180.00,-45.00,CLOSED,0
660341.997,0,0,0,1.000,1.000,1.000,-90.00,180.00,-45.00,CLOSED,0
660342.047,0,0,0,1.000,1.000,1.000,-90.00,180.00,-45.00,CLOSED,0
660342.097,0,0,0,1.000,1.000,1.000,-90.00,180.00,-45.00,CLOSED,0
660342.147,0,0,0,1.000,1.000,1.000,-90.00,180.00,-45.00,CLOSED,0
660342.197,0,0,0,1.000,1.000,1.000,-90.00,180.00,-45.00,CLOSED,0
660342.247,0,0,0,1.000,1.000,1.000,-90.00,180.00,-45.00,CLOSED,0
660342.297,0,0,0,1.000,1.000,1.000,-90.00,180.00,-45.00,CLOSED,0
660342.347,0,0,0,1.000,1.000,1.000,-90.00,180.00,-45.00,CLOSED,0
660342.397,0,0,0,1.000,1.000,1.000,-90.00,180.00,-45.00,CLOSED,0
660342.447,0,0,0,1.000,1.000,1.000,-90.00,180.00,-45.00,CLOSED,0
660342.497,0,0,0,1.000,1.000,1.000,-90.00,180.00,-45.00,CLOSED,0
660342.547,0,0,0,1.000,1.000,1.000,-90.00,180.00,-45.00,CLOSED,0
660342.597,0,0,0,1.000,1.000,1.000,-90.00,180.00,-45.00,CLOSED,0
660342.647,0,0,0,1.000,1.000,1.000,-90.00,180.00,-45.00,CLOSED,0
660342.696,0,0,0,1.000,1.000,1.000,-90.00,180.00,-45.00,CLOSED,0
660342.747,0,0,0,1.000,1.000,1.000,-90.00,180.00,-45.00,CLOSED,0
660342.797,0,0,0,1.000,1.000,1.000,-90.00,180.00,-45.00,CLOSED,0
660342.847,0,0,0,1.000,1.000,1.000,-90.00,180.00,-45.00,CLOSED,0
660342.897,0,0,0,1.000,1.000,1.000,-90.00,180.00,-45.00,CLOSED,0
660342.947,0,0,0,1.000,1.000,1.000,-90.00,180.00,-45.00,CLOSED,0
660342.997,0,0,0,1.000,1.000,1.000,-90.00,180.00,-45.00,CLOSED,0
660343.047,0,0,0,1.000,1.000,1.000,-90.00,180.00,-45.00,CLOSED,0
660343.097,0,0,0,1.000,1.000,1.000,-90.00,180.00,-45.00,CLOSED,0
660343.147,0,0,0,1.000,1.000,1.000,-90.00,180.00,-45.00,CLOSED,0
660343.197,0,0,0,1.000,1.000,1.000,-90.00,180.00,-45.00,CLOSED,0
660343.247,0,0,0,1.000,1.000,1.000,-90.00,180.00,-45.00,CLOSED,0
660343.297,0,0,0,1.000,1.000,1.000,-90.00,180.00,-45.00,CLOSED,0
660343.347,0,0,0,1.000,1.000,1.000,-90.00,180.00,-45.00,CLOSED,0
660343.397,0,0,0,1.000,1.000,1.000,-90.00,180.00,-45.00,CLOSED,0
660343.447,0,0,0,1.000,1.000,1.000,-90.00,180.00,-45.00,CLOSED,0
660343.497,0,0,0,1.000,1.000,1.000,-90.00,180.00,-45.00,CLOSED,0
660343.547,0,0,0,1.000,1.000,1.000,-90.00,180.00,-45.00,CLOSED,0
660343.597,0,0,0,1.000,1.000,1.000,-90.00,180.00,-45.00,CLOSED,0
660343.647,0,0,0,1.000,1.000,1.000,-90.00,180.00,-45.00,CLOSED,0
660343.697,0,0,0,1.000,1.000,1.000,-90.00,180.00,-45.00,CLOSED,0
660343.747,0,0,0,1.000,1.000,1.000,-90.00,180.00,-45.00,CLOSED,0
660343.797,0,0,0,1.000,1.000,1.000,-90.00,180.00,-45.00,CLOSED,0
660343.847,0,0,0,1.000,1.000,1.000,-90.00,180.00,-45.00,CLOSED,0
660343.897,0,0,0,1.000,1.000,1.000,-90.00,180.00,-45.00,CLOSED,0
660343.946,0,0,0,1.000,1.000,1.000,-90.00,180.00,-45.00,CLOSED,0
660343.997,0,0,0,1.000,1.000,1.000,-90.00,180.00,-45.00,CLOSED,0
660344.047,0,0,0,1.000,1.000,1.000,-90.00,180.00,-45.00,CLOSED,0
660344.097,0,0,0,1.000,1.000,1.000,-90.00,180.00,-45.00,CLOSED,0
660344.148,0,0,0,1.000,1.000,1.000,-90.00,180.00,-45.00,CLOSED,0
660344.197,0,0,0,1.000,1.000,1.000,-90.00,180.00,-45.00,CLOSED,0
660344.247,0,0,0,1.000,1.000,1.000,-90.00,180.00,-45.00,CLOSED,0
660344.297,0,0,0,1.000,1.000,1.000,-90.00,180.00,-45.00,CLOSED,0
660344.347,0,0,0,1.000,1.000,1.000,-90.00,180.00,-45.00,CLOSED,0
660344.397,0,0,0,1.000,1.000,1.000,-90.00,180.00,-45.00,CLOSED,0
660344.447,0,0,0,1.000,1.000,1.000,-90.00,180.00,-45.00,CLOSED,0
660344.497,0,0,0,1.000,1.000,1.000,-90.00,180.00,-45.00,CLOSED,0
660344.546,0,0,0,1.000,1.000,1.000,-90.00,180.00,-45.00,CLOSED,0
660344.598,0,0,0,1.000,1.000,1.000,-90.00,180.00,-45.00,CLOSED,0
660344.647,0,0,0,1.000,1.000,1.000,-90.00,180.00,-45.00,CLOSED,0
660344.696,0,0,0,1.000,1.000,1.000,-90.00,180.00,-45.00,CLOSED,0
660344.747,0,0,0,1.000,1.000,1.000,-90.00,180.00,-45.00,CLOSED,0
660344.797,0,0,0,1.000,1.000,1.000,-90.00,180.00,-45.00,CLOSED,0
660344.847,0,0,0,1.000,1.000,1.000,-90.00,180.00,-45.00,CLOSED,0
660344.897,0,0,0,1.000,1.000,1.000,-90.00,180.00,-45.00,CLOSED,0
660344.947,0,0,0,1.000,1.000,1.000,-90.00,180.00,-45.00,CLOSED,0
660344.997,0,0,0,1.000,1.000,1.000,-90.00,180.00,-45.00,CLOSED,0
660345.047,0,0,0,1.000,1.000,1.000,-90.00,180.00,-45.00,CLOSED,0
660345.097,0,0,0,1.000,1.000,1.000,-90.00,180.00,-45.00,CLOSED,0
660345.147,0,0,0,1.000,1.000,1.000,-90.00,180.00,-45.00,CLOSED,0
660345.197,0,0,0,1.000,1.000,1.000,-90.00,180.00,-45.00,CLOSED,0
660345.247,0,0,0,1.000,1.000,1.000,-90.00,180.00,-45.00,CLOSED,0
660345.297,0,0,0,1.000,1.000,1.000,-90.00,180.00,-45.00,CLOSED,0
660345.348,0,0,0,1.000,1.000,1.000,-90.00,180.00,-45.00,CLOSED,0
660345.397,0,0,0,1.000,1.000,1.000,-90.00,180.00,-45.00,CLOSED,0
660345.447,0,0,0,1.000,1.000,1.000,-90.00,180.00,-45.00,CLOSED,0
660345.497,0,0,0,1.000,1.000,1.000,-90.00,180.00,-45.00,CLOSED,0
660345.547,0,0,0,1.000,1.000,1.000,-90.00,180.00,-45.00,CLOSED,0
660345.597,0,0,0,1.000,1.000,1.000,-90.00,180.00,-45.00,CLOSED,0
660345.648,0,0,0,1.000,1.000,1.000,-90.00,180.00,-45.00,CLOSED,0
660345.698,0,0,0,1.000,1.000,1.000,-90.00,180.00,-45.00,CLOSED,0
660345.747,0,0,0,1.000,1.000,1.000,-90.00,180.00,-45.00,CLOSED,0
660345.797,0,0,0,1.000,1.000,1.000,-90.00,180.00,-45.00,CLOSED,0
660345.847,0,0,0,1.000,1.000,1.000,-90.00,180.00,-45.00,CLOSED,0
660345.902,0,0,0,1.000,1.000,1.000,-90.00,180.00,-45.00,CLOSED,0
660345.947,0,0,0,1.000,1.000,1.000,-90.00,180.00,-45.00,CLOSED,0
660345.997,0,0,0,1.000,1.000,1.000,-90.00,180.00,-45.00,CLOSED,0
660346.047,0,0,0,1.000,1.000,1.000,-90.00,180.00,-45.00,CLOSED,0
660346.097,0,0,0,1.000,1.000,1.000,-90.00,180.00,-45.00,CLOSED,0
660346.146,0,0,0,1.000,1.000,1.000,-90.00,180.00,-45.00,CLOSED,0
660346.197,0,0,0,1.000,1.000,1.000,-90.00,180.00,-45.00,CLOSED,0
660346.248,0,0,0,1.000,1.000,1.000,-90.00,180.00,-45.00,CLOSED,0
660346.297,0,0,0,1.000,1.000,1.000,-90.00,180.00,-45.00,CLOSED,0
660346.348,0,0,0,1.000,1.000,1.000,-90.00,180.00,-45.00,CLOSED,0
660346.397,0,0,0,1.000,1.000,1.000,-90.00,180.00,-45.00,CLOSED,0
660346.447,0,0,0,1.000,1.000,1.000,-90.00,180.00,-45.00,CLOSED,0
660346.497,0,0,0,1.000,1.000,1.000,-90.00,180.00,-45.00,CLOSED,0
660346.547,0,0,0,1.000,1.000,1.000,-90.00,180.00,-45.00,CLOSED,0
660346.597,0,0,0,1.000,1.000,1.000,-90.00,180.00,-45.00,CLOSED,0
660346.647,0,0,0,1.000,1.000,1.000,-90.00,180.00,-45.00,CLOSED,0
660346.697,0,0,0,1.000,1.000,1.000,-90.00,180.00,-45.00,CLOSED,0
660346.748,0,0,0,1.000,1.000,1.000,-90.00,180.00,-45.00,CLOSED,0
660346.798,0,0,0,1.000,1.000,1.000,-90.00,180.00,-45.00,CLOSED,0
660346.847,0,0,0,1.000,1.000,1.000,-90.00,180.00,-45.00,CLOSED,0
660346.897,0,0,0,1.000,1.000,1.000,-90.00,180.00,-45.00,CLOSED,0
660346.947,0,0,0,1.000,1.000,1.000,-90.00,180.00,-45.00,CLOSED,0
660346.997,0,0,0,1.000,1.000,1.000,-90.00,180.00,-45.00,CLOSED,0
660347.048,0,0,0,1.000,1.000,1.000,-90.00,180.00,-45.00,CLOSED,0
660347.097,0,0,0,1.000,1.000,1.000,-90.00,180.00,-45.00,CLOSED,0
660347.147,0,0,0,1.000,1.000,1.000,-90.00,180.00,-45.00,CLOSED,0
660347.197,0,0,0,1.000,1.000,1.000,-90.00,180.00,-45.00,CLOSED,0
660347.247,0,0,0,1.000,1.000,1.000,-90.00,180.00,-45.00,CLOSED,0
660347.297,0,0,0,1.000,1.000,1.000,-90.00,180.00,-45.00,CLOSED,0
660347.347,0,0,0,1.000,1.000,1.000,-90.00,180.00,-45.00,CLOSED,0
660347.397,0,0,0,1.000,1.000,1.000,-90.00,180.00,-45.00,CLOSED,0
660347.447,0,0,0,1.000,1.000,1.000,-90.00,180.00,-45.00,CLOSED,0
660347.497,0,0,0,1.000,1.000,1.000,-90.00,180.00,-45.00,CLOSED,0
660347.547,0,0,0,1.000,1.000,1.000,-90.00,180.00,-45.00,CLOSED,0
660347.597,0,0,0,1.000,1.000,1.000,-90.00,180.00,-45.00,CLOSED,0
660347.647,0,0,0,1.000,1.000,1.000,-90.00,180.00,-45.00,CLOSED,0
660347.697,0,0,0,1.000,1.000,1.000,-90.00,180.00,-45.00,CLOSED,0
660347.747,0,0,0,1.000,1.000,1.000,-90.00,180.00,-45.00,CLOSED,0
660347.797,0,0,0,1.000,1.000,1.000,-90.00,180.00,-45.00,CLOSED,0
660347.848,0,0,0,1.000,1.000,1.000,-90.00,180.00,-45.00,CLOSED,0
660347.897,0,0,0,1.000,1.000,1.000,-90.00,180.00,-45.00,CLOSED,0
660347.948,0,0,0,1.000,1.000,1.000,-90.00,180.00,-45.00,CLOSED,0
660348.001,0,0,0,1.000,1.000,1.000,-90.00,180.00,-45.00,CLOSED,0
660348.048,0,0,0,1.000,1.000,1.000,-90.00,180.00,-45.00,CLOSED,0
660348.097,0,0,0,1.000,1.000,1.000,-90.00,180.00,-45.00,CLOSED,0
660348.148,0,0,0,1.000,1.000,1.000,-90.00,180.00,-45.00,CLOSED,0
660348.199,0,0,0,1.000,1.000,1.000,-90.00,180.00,-45.00,CLOSED,0
660348.256,0,0,0,1.000,1.000,1.000,-90.00,180.00,-45.00,CLOSED,0
660348.303,0,0,0,1.000,1.000,1.000,-90.00,180.00,-45.00,CLOSED,0
660348.354,0,0,0,1.000,1.000,1.000,-90.00,180.00,-45.00,CLOSED,0
660348.401,0,0,0,1.000,1.000,1.000,-90.00,180.00,-45.00,CLOSED,0
660348.448,0,0,0,1.000,1.000,1.000,-90.00,180.00,-45.00,CLOSED,0
660348.499,0,0,0,1.000,1.000,1.000,-90.00,180.00,-45.00,CLOSED,0
660348.548,0,0,0,1.000,1.000,1.000,-90.00,180.00,-45.00,CLOSED,0
660348.601,0,0,0,0.996,1.000,1.000,-90.00,180.00,-45.00,CLOSED,0
660348.647,0,0,0,0.993,1.000,1.000,-90.00,180.00,-45.00,CLOSED,0
660348.702,0,0,0,1.000,1.000,1.000,-90.00,180.00,-45.00,CLOSED,0
660348.748,0,0,0,1.000,1.000,1.000,-90.00,180.00,-45.00,CLOSED,0
660348.799,0,0,0,1.000,1.000,1.000,-90.00,180.00,-45.00,CLOSED,0
660348.853,0,0,0,1.000,1.000,1.000,-90.00,180.00,-45.00,CLOSED,0
660348.898,0,0,0,1.000,1.000,1.000,-90.00,180.00,-45.00,CLOSED,0
660348.950,0,0,0,1.000,1.000,1.000,-90.00,180.00,-45.00,CLOSED,0
660348.998,0,0,0,0.990,1.000,1.000,-90.00,180.00,-45.00,CLOSED,0
660349.049,0,0,0,0.999,1.000,1.000,-90.00,180.00,-45.00,CLOSED,0
660349.099,0,0,0,0.991,1.000,1.000,-90.00,180.00,-45.00,CLOSED,0
660349.149,0,0,0,0.992,1.000,1.000,-90.00,180.00,-45.00,CLOSED,0
660349.198,0,0,0,0.998,1.000,1.000,-90.00,180.00,-45.00,CLOSED,0
660349.248,0,0,0,1.000,1.000,1.000,-90.00,180.00,-45.00,CLOSED,0
660349.298,0,0,0,1.000,1.000,1.000,-90.00,180.00,-45.00,CLOSED,0
660349.348,0,0,0,1.000,1.000,1.000,-90.00,180.00,-45.00,CLOSED,0
660349.401,0,0,0,1.000,1.000,1.000,-90.00,180.00,-45.00,CLOSED,0
660349.449,0,0,0,1.000,1.000,1.000,-90.00,180.00,-45.00,CLOSED,0
660349.499,0,0,0,1.000,1.000,1.000,-90.00,180.00,-45.00,CLOSED,0
660349.548,0,0,0,1.000,1.000,1.000,-90.00,180.00,-45.00,CLOSED,0
660349.598,0,0,0,1.000,1.000,1.000,-90.00,180.00,-45.00,CLOSED,0
660349.648,0,0,0,1.000,1.000,1.000,-90.00,180.00,-45.00,CLOSED,0
660349.698,0,0,0,1.000,1.000,1.000,-90.00,180.00,-45.00,CLOSED,0
660349.748,0,0,0,1.000,1.000,1.000,-90.00,180.00,-45.00,CLOSED,0
660349.799,0,0,0,1.000,1.000,1.000,-90.00,180.00,-45.00,CLOSED,0
660349.849,0,0,0,1.000,1.000,1.000,-90.00,180.00,-45.00,CLOSED,0
660349.899,0,0,0,1.000,1.000,1.000,-90.00,180.00,-45.00,CLOSED,0
660349.952,0,0,0,1.000,1.000,1.000,-90.00,180.00,-45.00,CLOSED,0
660350.002,0,0,0,1.000,1.000,1.000,-90.00,180.00,-45.00,CLOSED,0
660350.052,0,0,0,1.000,1.000,1.000,-90.00,180.00,-45.00,CLOSED,0
660350.098,0,0,0,1.000,1.000,1.000,-90.00,180.00,-45.00,CLOSED,0
660350.148,0,0,0,1.000,1.000,1.000,-90.00,180.00,-45.00,CLOSED,0
660350.199,0,0,0,1.000,1.000,1.000,-90.00,180.00,-45.00,CLOSED,0
660350.249,0,0,0,1.000,1.000,1.000,-90.00,180.00,-45.00,CLOSED,0
660350.298,0,0,0,1.000,1.000,1.000,-90.00,180.00,-45.00,CLOSED,0
660350.351,0,0,0,1.000,1.000,1.000,-90.00,180.00,-45.00,CLOSED,0
660350.398,0,0,0,1.000,1.000,1.000,-90.00,180.00,-45.00,CLOSED,0
660350.449,0,0,0,1.000,1.000,1.000,-90.00,180.00,-45.00,CLOSED,0
660350.497,0,0,0,1.000,1.000,1.000,-90.00,180.00,-45.00,CLOSED,0
660350.548,0,0,0,1.000,1.000,1.000,-90.00,180.00,-45.00,CLOSED,0
660350.598,0,0,0,1.000,1.000,1.000,-90.00,180.00,-45.00,CLOSED,0
660350.648,0,0,0,1.000,1.000,1.000,-90.00,180.00,-45.00,CLOSED,0
660350.699,0,0,0,1.000,1.000,1.000,-90.00,180.00,-45.00,CLOSED,0
660350.753,0,0,0,1.000,1.000,1.000,-90.00,180.00,-45.00,CLOSED,0
660350.797,0,0,0,1.000,1.000,1.000,-90.00,180.00,-45.00,CLOSED,0
660350.848,0,0,0,1.000,1.000,1.000,-90.00,180.00,-45.00,CLOSED,0
660350.897,0,0,0,1.000,1.000,1.000,-90.00,180.00,-45.00,CLOSED,0
660350.954,0,0,0,1.000,1.000,1.000,-90.00,180.00,-45.00,CLOSED,0
660351.002,0,0,0,1.000,1.000,1.000,-90.00,180.00,-45.00,CLOSED,0
660351.052,0,0,0,1.000,1.000,1.000,-90.00,180.00,-45.00,CLOSED,0
660351.098,0,0,0,1.000,1.000,1.000,-90.00,180.00,-45.00,CLOSED,0
660351.149,0,0,0,1.000,1.000,1.000,-90.00,180.00,-45.00,CLOSED,0
660351.198,0,0,0,1.000,1.000,1.000,-90.00,180.00,-45.00,CLOSED,0
660351.252,0,0,0,1.000,1.000,1.000,-90.00,180.00,-45.00,CLOSED,0
660351.298,0,0,0,1.000,1.000,1.000,-90.00,180.00,-45.00,CLOSED,0
660351.347,0,0,0,1.000,1.000,1.000,-90.00,180.00,-45.00,CLOSED,0
660351.398,0,0,0,1.000,1.000,1.000,-90.00,180.00,-45.00,CLOSED,0
660351.449,0,0,0,1.000,1.000,1.000,-90.00,180.00,-45.00,CLOSED,0
660351.498,0,0,0,1.000,1.000,1.000,-90.00,180.00,-45.00,CLOSED,0
660351.548,0,0,0,1.000,1.000,1.000,-90.00,180.00,-45.00,CLOSED,0
660351.598,0,0,0,1.000,1.000,1.000,-90.00,180.00,-45.00,CLOSED,0
660351.652,0,0,0,1.000,1.000,1.000,-90.00,180.00,-45.00,CLOSED,0
660351.702,0,0,0,1.000,1.000,1.000,-90.00,180.00,-45.00,CLOSED,0
660351.748,0,0,0,1.000,1.000,1.000,-90.00,180.00,-45.00,CLOSED,0
660351.798,0,0,0,1.000,1.000,1.000,-90.00,180.00,-45.00,CLOSED,0
660351.848,0,0,0,1.000,1.000,1.000,-90.00,180.00,-45.00,CLOSED,0
660351.899,0,0,0,1.000,1.000,1.000,-90.00,180.00,-45.00,CLOSED,0
660351.952,0,0,0,1.000,1.000,1.000,-90.00,180.00,-45.00,CLOSED,0
660351.998,0,0,0,1.000,1.000,1.000,-90.00,180.00,-45.00,CLOSED,0
660352.047,0,0,0,1.000,1.000,1.000,-90.00,180.00,-45.00,CLOSED,0
660352.098,0,0,0,1.000,1.000,1.000,-90.00,180.00,-45.00,CLOSED,0
660352.149,0,0,0,1.000,1.000,1.000,-90.00,180.00,-45.00,CLOSED,0
660352.200,0,0,0,1.000,1.000,1.000,-90.00,180.00,-45.00,CLOSED,0
660352.249,0,0,0,1.000,1.000,1.000,-90.00,180.00,-45.00,CLOSED,0
660352.298,0,0,0,1.000,1.000,1.000,-90.00,180.00,-45.00,CLOSED,0
660352.348,0,0,0,1.000,1.000,1.000,-90.00,180.00,-45.00,CLOSED,0
660352.398,0,0,0,1.000,1.000,1.000,-90.00,180.00,-45.00,CLOSED,0
660352.447,0,0,0,1.000,1.000,1.000,-90.00,180.00,-45.00,CLOSED,0
660352.498,0,0,0,1.000,1.000,1.000,-90.00,180.00,-45.00,CLOSED,0
660352.548,0,0,0,1.000,1.000,1.000,-90.00,180.00,-45.00,CLOSED,0
660352.599,0,0,0,1.000,1.000,1.000,-90.00,180.00,-45.00,CLOSED,0
660352.649,0,0,0,1.000,1.000,1.000,-90.00,180.00,-45.00,CLOSED,0
660352.698,0,0,0,1.000,1.000,1.000,-90.00,180.00,-45.00,CLOSED,0
660352.748,0,0,0,1.000,1.000,1.000,-90.00,180.00,-45.00,CLOSED,0
660352.802,0,0,0,1.000,1.000,1.000,-90.00,180.00,-45.00,CLOSED,0
660352.850,0,0,0,1.000,1.000,1.000,-90.00,180.00,-45.00,CLOSED,0
660352.901,0,0,0,1.000,1.000,1.000,-90.00,180.00,-45.00,CLOSED,0
660352.947,0,0,0,1.000,1.000,1.000,-90.00,180.00,-45.00,CLOSED,0
660352.997,0,0,0,1.000,1.000,1.000,-90.00,180.00,-45.00,CLOSED,0
660353.049,0,0,0,1.000,1.000,1.000,-90.00,180.00,-45.00,CLOSED,0
660353.098,0,0,0,1.000,1.000,1.000,-90.00,180.00,-45.00,CLOSED,0
660353.148,0,0,0,1.000,1.000,1.000,-90.00,180.00,-45.00,CLOSED,0
660353.197,0,0,0,1.000,1.000,1.000,-90.00,180.00,-45.00,CLOSED,0
660353.248,0,0,0,1.000,1.000,1.000,-90.00,180.00,-45.00,CLOSED,0
660353.298,0,0,0,1.000,1.000,1.000,-90.00,180.00,-45.00,CLOSED,0
660353.348,0,0,0,1.000,1.000,1.000,-90.00,180.00,-45.00,CLOSED,0
660353.397,0,0,0,1.000,1.000,1.000,-90.00,180.00,-45.00,CLOSED,0
660353.448,0,0,0,1.000,1.000,1.000,-90.00,180.00,-45.00,CLOSED,0
660353.499,0,0,0,1.000,1.000,1.000,-90.00,180.00,-45.00,CLOSED,0
660353.548,0,0,0,1.000,1.000,1.000,-90.00,180.00,-45.00,CLOSED,0
660353.598,0,0,0,1.000,1.000,1.000,-90.00,180.00,-45.00,CLOSED,0
660353.649,0,0,0,1.000,1.000,1.000,-90.00,180.00,-45.00,CLOSED,0
660353.706,0,0,0,1.000,1.000,1.000,-90.00,180.00,-45.00,CLOSED,0
660353.754,0,0,0,1.000,1.000,1.000,-90.00,180.00,-45.00,CLOSED,0
660353.802,0,0,0,1.000,1.000,1.000,-90.00,180.00,-45.00,CLOSED,0
660353.857,0,0,0,1.000,1.000,1.000,-90.00,180.00,-45.00,CLOSED,0
660353.902,0,0,0,1.000,1.000,1.000,-90.00,180.00,-45.00,CLOSED,0
660353.952,0,0,0,1.000,1.000,1.000,-90.00,180.00,-45.00,CLOSED,0
660353.998,0,0,0,1.000,1.000,1.000,-90.00,180.00,-45.00,CLOSED,0
660354.048,0,0,0,1.000,1.000,1.000,-90.00,180.00,-45.00,CLOSED,0
660354.098,0,0,0,1.000,1.000,1.000,-90.00,180.00,-45.00,CLOSED,0
660354.154,0,0,0,1.000,1.000,1.000,-90.00,180.00,-45.00,CLOSED,0
660354.201,0,0,0,1.000,1.000,1.000,-90.00,180.00,-45.00,CLOSED,0
660354.248,0,0,0,1.000,1.000,1.000,-90.00,180.00,-45.00,CLOSED,0
660354.298,0,0,0,1.000,1.000,1.000,-90.00,180.00,-45.00,CLOSED,0
660354.348,0,0,0,1.000,1.000,1.000,-90.00,180.00,-45.00,CLOSED,0
660354.398,0,0,0,1.000,1.000,1.000,-90.00,180.00,-45.00,CLOSED,0
660354.448,0,0,0,1.000,1.000,1.000,-90.00,180.00,-45.00,CLOSED,0
660354.498,0,0,0,1.000,1.000,1.000,-90.00,180.00,-45.00,CLOSED,0
660354.548,0,0,0,1.000,1.000,1.000,-90.00,180.00,-45.00,CLOSED,0
660354.598,0,0,0,1.000,1.000,1.000,-90.00,180.00,-45.00,CLOSED,0
660354.647,0,0,0,1.000,1.000,1.000,-90.00,180.00,-45.00,CLOSED,0
660354.699,0,0,0,1.000,1.000,1.000,-90.00,180.00,-45.00,CLOSED,0
660354.748,0,0,0,1.000,1.000,1.000,-90.00,180.00,-45.00,CLOSED,0
660354.800,0,0,0,1.000,1.000,1.000,-90.00,180.00,-45.00,CLOSED,0
660354.849,0,0,0,1.000,1.000,1.000,-90.00,180.00,-45.00,CLOSED,0
660354.898,0,0,0,1.000,1.000,1.000,-90.00,180.00,-45.00,CLOSED,0
660354.948,0,0,0,1.000,1.000,1.000,-90.00,180.00,-45.00,CLOSED,0
660355.001,0,0,0,1.000,1.000,1.000,-90.00,180.00,-45.00,CLOSED,0
660355.048,0,0,0,1.000,1.000,1.000,-90.00,180.00,-45.00,CLOSED,0
660355.098,0,0,0,1.000,1.000,1.000,-90.00,180.00,-45.00,CLOSED,0
660355.149,0,0,0,1.000,1.000,1.000,-90.00,180.00,-45.00,CLOSED,0
660355.199,0,0,0,1.000,1.000,1.000,-90.00,180.00,-45.00,CLOSED,0
660355.249,0,0,0,1.000,1.000,1.000,-90.00,180.00,-45.00,CLOSED,0
660355.298,0,0,0,1.000,1.000,1.000,-90.00,180.00,-45.00,CLOSED,0
660355.347,0,0,0,1.000,1.000,1.000,-90.00,180.00,-45.00,CLOSED,0
660355.398,0,0,0,1.000,1.000,1.000,-90.00,180.00,-45.00,CLOSED,0
660355.449,0,0,0,1.000,1.000,1.000,-90.00,180.00,-45.00,CLOSED,0
660355.499,0,0,0,1.000,1.000,1.000,-90.00,180.00,-45.00,CLOSED,0
660355.548,0,0,0,1.000,1.000,1.000,-90.00,180.00,-45.00,CLOSED,0
660355.602,0,0,0,1.000,1.000,1.000,-90.00,180.00,-45.00,CLOSED,0
660355.652,0,0,0,1.000,0.999,1.000,-90.00,180.00,-45.00,CLOSED,0
660355.698,0,0,0,1.000,0.998,1.000,-90.00,180.00,-45.00,CLOSED,0
660355.752,0,0,0,1.000,0.994,1.000,-90.00,180.00,-45.00,CLOSED,0
660355.798,0,0,0,1.000,0.973,1.000,-90.00,180.00,-45.00,CLOSED,0
660355.848,0,0,0,1.000,0.706,1.000,-90.00,180.00,-45.00,CLOSED,0
660355.904,0,0,0,1.000,0.835,1.000,-90.00,180.00,-45.00,CLOSED,0
660355.948,0,0,0,1.000,0.947,1.000,-90.00,180.00,-45.00,CLOSED,0
660356.001,0,0,0,1.000,0.962,1.000,-90.00,180.00,-45.00,CLOSED,0
660356.048,0,0,0,1.000,0.954,1.000,-90.00,180.00,-45.00,CLOSED,0
660356.098,0,0,0,1.000,0.886,1.000,-90.00,180.00,-45.00,CLOSED,0
660356.148,0,0,0,1.000,0.583,1.000,-90.00,180.00,-45.00,CLOSED,0
660356.200,0,0,0,1.000,0.745,1.000,-90.00,180.00,-45.00,CLOSED,0
660356.249,0,0,0,1.000,0.909,1.000,-90.00,180.00,-45.00,CLOSED,0
660356.301,0,0,0,1.000,0.961,0.999,-90.00,180.00,-45.00,CLOSED,0
660356.352,0,0,0,1.000,0.986,0.998,-90.00,180.00,-45.00,CLOSED,0
660356.407,0,0,0,1.000,0.994,0.997,-90.00,180.00,-45.00,CLOSED,0
660356.448,0,0,0,1.000,0.996,0.996,-90.00,180.00,-45.00,CLOSED,0
660356.500,0,0,0,1.000,0.997,0.995,-90.00,180.00,-45.00,CLOSED,0
660356.548,0,0,0,1.000,0.998,0.995,-90.00,180.00,-45.00,CLOSED,0
660356.598,0,0,0,1.000,0.998,0.994,-90.00,180.00,-45.00,CLOSED,0
660356.650,0,0,0,1.000,0.998,0.994,-90.00,180.00,-45.00,CLOSED,0
660356.698,0,0,0,1.000,0.999,0.992,-90.00,180.00,-45.00,CLOSED,0
660356.748,0,0,0,1.000,0.999,0.987,-90.00,180.00,-45.00,CLOSED,0
660356.798,0,0,0,1.000,0.999,0.979,-90.00,180.00,-45.00,CLOSED,0
660356.847,0,0,0,1.000,0.999,0.969,-90.00,180.00,-45.00,CLOSED,0
660356.898,0,0,0,1.000,1.000,0.968,-90.00,180.00,-45.00,CLOSED,0
660356.948,0,0,0,1.000,1.000,0.970,-90.00,180.00,-45.00,CLOSED,0
660356.998,0,0,0,1.000,1.000,0.976,-90.00,180.00,-45.00,CLOSED,0
660357.054,0,0,0,1.000,1.000,0.979,-90.00,180.00,-45.00,CLOSED,0
660357.098,0,0,0,1.000,0.999,0.980,-90.00,180.00,-45.00,CLOSED,0
660357.147,0,0,0,1.000,0.999,0.982,-90.00,180.00,-45.00,CLOSED,0
660357.198,0,0,0,1.000,0.998,0.983,-90.00,180.00,-45.00,CLOSED,0
660357.249,0,0,0,1.000,0.994,0.979,-90.00,180.00,-45.00,CLOSED,0
660357.298,0,0,0,1.000,0.980,0.973,-90.00,180.00,-45.00,CLOSED,0
660357.349,0,0,0,1.000,0.943,0.951,-90.00,180.00,-45.00,CLOSED,0
660357.398,0,0,0,1.000,0.888,0.924,-90.00,180.00,-45.00,CLOSED,0
660357.448,0,0,0,1.000,0.865,0.897,-90.00,180.00,-45.00,CLOSED,0
660357.498,0,0,0,1.000,0.869,0.887,-90.00,180.00,-45.00,CLOSED,0
660357.548,0,0,0,1.000,0.854,0.901,-90.00,180.00,-45.00,CLOSED,0
660357.598,0,0,0,1.000,0.831,0.929,-90.00,180.00,-45.00,CLOSED,0
660357.647,0,0,0,1.000,0.825,0.960,-90.00,180.00,-45.00,CLOSED,0
660357.698,0,0,0,1.000,0.859,0.977,-90.00,180.00,-45.00,CLOSED,0
660357.748,0,0,0,1.000,0.906,0.988,-90.00,180.00,-45.00,CLOSED,0
660357.797,0,0,0,1.000,0.942,0.992,-90.00,180.00,-45.00,CLOSED,0
660357.849,0,0,0,1.000,0.969,0.995,-90.00,180.00,-45.00,CLOSED,0
660357.898,0,0,0,1.000,0.981,0.997,-90.00,180.00,-45.00,CLOSED,0
660357.953,0,0,0,1.000,0.989,0.998,-90.00,180.00,-45.00,CLOSED,0
660358.005,0,0,0,1.000,0.992,0.998,-90.00,180.00,-45.00,CLOSED,0
660358.048,0,0,0,1.000,0.995,0.998,-90.00,180.00,-45.00,CLOSED,0
660358.098,0,0,0,1.000,0.996,0.998,-90.00,180.00,-45.00,CLOSED,0
660358.147,0,0,0,1.000,0.997,0.998,-90.00,180.00,-45.00,CLOSED,0
660358.197,0,0,0,1.000,0.996,0.997,-90.00,180.00,-45.00,CLOSED,0
660358.248,0,0,0,1.000,0.995,0.996,-90.00,180.00,-45.00,CLOSED,0
660358.298,0,0,0,1.000,0.989,0.994,-90.00,180.00,-45.00,CLOSED,0
660358.348,0,0,0,1.000,0.962,0.989,-90.00,180.00,-45.00,CLOSED,0
660358.398,0,0,0,1.000,0.843,0.982,-90.00,180.00,-45.00,CLOSED,0
660358.448,0,0,0,1.000,0.502,0.973,-90.00,180.00,-45.00,CLOSED,0
660358.497,0,0,0,1.000,0.804,0.970,-90.00,180.00,-45.00,CLOSED,0
660358.548,0,0,0,1.000,0.892,0.972,-90.00,180.00,-45.00,CLOSED,0
660358.597,0,0,0,1.000,0.892,0.979,-90.00,180.00,-45.00,CLOSED,0
660358.648,0,0,0,1.000,0.818,0.984,-90.00,180.00,-45.00,CLOSED,0
660358.698,0,0,0,1.000,0.657,0.989,-90.00,180.00,-45.00,CLOSED,0
660358.747,0,0,0,1.000,0.515,0.990,-90.00,180.00,-45.00,CLOSED,0
660358.799,0,0,0,1.000,0.650,0.990,-90.00,180.00,-45.00,CLOSED,0
660358.847,0,0,0,1.000,0.754,0.989,-90.00,180.00,-45.00,CLOSED,0
660358.904,0,0,0,1.000,0.770,0.988,-90.00,180.00,-45.00,CLOSED,0
660358.949,0,0,0,1.000,0.735,0.985,-90.00,180.00,-45.00,CLOSED,0
660358.999,0,0,0,1.000,0.698,0.983,-90.00,180.00,-45.00,CLOSED,0
660359.048,0,0,0,1.000,0.645,0.984,-90.00,180.00,-45.00,CLOSED,0
660359.102,0,0,0,1.000,0.608,0.985,-90.00,180.00,-45.00,CLOSED,0
660359.148,0,0,0,1.000,0.618,0.989,-90.00,180.00,-45.00,CLOSED,0
660359.199,0,0,0,1.000,0.718,0.990,-90.00,180.00,-45.00,CLOSED,0
660359.248,0,0,0,1.000,0.775,0.992,-90.00,180.00,-45.00,CLOSED,0
660359.298,0,0,0,1.000,0.844,0.990,-90.00,180.00,-45.00,CLOSED,0
660359.348,0,0,0,1.000,0.898,0.991,-90.00,180.00,-45.00,CLOSED,0
660359.398,0,0,0,1.000,0.915,0.989,-90.00,180.00,-45.00,CLOSED,0
660359.448,0,0,0,1.000,0.913,0.986,-90.00,180.00,-45.00,CLOSED,0
660359.499,0,0,0,1.000,0.908,0.983,-90.00,180.00,-45.00,CLOSED,0
660359.548,0,0,0,1.000,0.883,0.972,-90.00,180.00,-45.00,CLOSED,0
660359.600,0,0,0,1.000,0.875,0.955,-90.00,180.00,-45.00,CLOSED,0
660359.648,0,0,0,1.000,0.937,0.949,-90.00,180.00,-45.00,CLOSED,0
660359.698,0,0,0,1.000,0.978,0.950,-90.00,180.00,-45.00,CLOSED,0
660359.749,0,0,0,1.000,0.992,0.962,-90.00,180.00,-45.00,CLOSED,0
660359.801,0,0,0,1.000,0.996,0.970,-90.00,180.00,-45.00,CLOSED,0
660359.849,0,0,0,1.000,0.997,0.974,-90.00,180.00,-45.00,CLOSED,0
660359.898,0,0,0,1.000,0.998,0.978,-90.00,180.00,-45.00,CLOSED,0
660359.948,0,0,0,1.000,0.998,0.979,-90.00,180.00,-45.00,CLOSED,0
660359.997,0,0,0,1.000,0.997,0.977,-90.00,180.00,-45.00,CLOSED,0
660360.047,0,0,0,1.000,0.994,0.975,-90.00,180.00,-45.00,CLOSED,0
660360.097,0,0,0,1.000,0.987,0.974,-90.00,180.00,-45.00,CLOSED,0
660360.148,0,0,0,1.000,0.955,0.970,-90.00,180.00,-45.00,CLOSED,0
660360.197,0,0,0,1.000,0.852,0.962,-90.00,180.00,-45.00,CLOSED,0
660360.261,0,0,0,1.000,0.690,0.959,-90.00,180.00,-45.00,CLOSED,0
660360.299,0,0,0,1.000,0.531,0.957,-90.00,180.00,-45.00,CLOSED,0
660360.348,0,0,0,1.000,0.596,0.954,-90.00,180.00,-45.00,CLOSED,0
660360.398,0,0,0,1.000,0.509,0.960,-90.00,180.00,-45.00,CLOSED,0
660360.448,0,0,0,1.000,0.617,0.963,-90.00,180.00,-45.00,CLOSED,0
660360.498,0,0,0,1.000,0.725,0.964,-90.00,180.00,-45.00,CLOSED,0
660360.547,0,0,0,1.000,0.760,0.968,-90.00,180.00,-45.00,CLOSED,0
660360.597,0,0,0,1.000,0.755,0.971,-90.00,180.00,-45.00,CLOSED,0
660360.647,0,0,0,1.000,0.711,0.976,-90.00,180.00,-45.00,CLOSED,0
660360.697,0,0,0,1.000,0.637,0.980,-90.00,180.00,-45.00,CLOSED,0
660360.747,0,0,0,1.000,0.555,0.980,-90.00,180.00,-45.00,CLOSED,0
660360.798,0,0,0,1.000,0.519,0.983,-90.00,180.00,-45.00,CLOSED,0
660360.847,0,0,0,1.000,0.550,0.983,-90.00,180.00,-45.00,CLOSED,0
660360.897,0,0,0,1.000,0.720,0.981,-90.00,180.00,-45.00,CLOSED,0
660360.947,0,0,0,1.000,0.863,0.972,-90.00,180.00,-45.00,CLOSED,0
660360.997,0,0,0,1.000,0.956,0.953,-90.00,180.00,-45.00,CLOSED,0
660361.050,0,0,0,1.000,0.980,0.932,-90.00,180.00,-45.00,CLOSED,0
660361.097,0,0,0,1.000,0.987,0.903,-90.00,180.00,-45.00,CLOSED,0
660361.147,0,0,0,1.000,0.988,0.892,-90.00,180.00,-45.00,CLOSED,0
660361.197,0,0,0,1.000,0.986,0.895,-90.00,180.00,-45.00,CLOSED,0
660361.247,0,0,0,1.000,0.977,0.924,-90.00,180.00,-45.00,CLOSED,0
660361.297,0,0,0,1.000,0.950,0.968,-90.00,180.00,-45.00,CLOSED,0
660361.347,0,0,0,1.000,0.926,0.987,-90.00,180.00,-45.00,CLOSED,0
660361.398,0,0,0,1.000,0.941,0.996,-90.00,180.00,-45.00,CLOSED,0
660361.447,0,0,0,1.000,0.975,0.999,-90.00,180.00,-45.00,CLOSED,0
660361.497,0,0,0,1.000,0.987,0.999,-90.00,180.00,-45.00,CLOSED,0
660361.548,0,0,0,1.000,0.995,0.999,-90.00,180.00,-45.00,CLOSED,0
660361.598,0,0,0,1.000,0.999,0.999,-90.00,180.00,-45.00,CLOSED,0
660361.647,0,0,0,1.000,1.000,0.999,-90.00,180.00,-45.00,CLOSED,0
660361.697,0,0,0,1.000,1.000,0.999,-90.00,180.00,-45.00,CLOSED,0
660361.748,0,0,0,1.000,1.000,0.999,-90.00,180.00,-45.00,CLOSED,0
660361.797,0,0,0,1.000,1.000,1.000,-90.00,180.00,-45.00,CLOSED,0
660361.846,0,0,0,1.000,1.000,1.000,-90.00,180.00,-45.00,CLOSED,0
660361.897,0,0,0,1.000,1.000,1.000,-90.00,180.00,-45.00,CLOSED,0
660361.948,0,0,0,1.000,1.000,1.000,-90.00,180.00,-45.00,CLOSED,0
660361.997,0,0,0,1.000,0.998,1.000,-90.00,180.00,-45.00,CLOSED,0
660362.047,0,0,0,0.999,0.998,1.000,-90.00,180.00,-45.00,CLOSED,0
660362.097,0,0,0,0.999,0.998,1.000,-90.00,180.00,-45.00,CLOSED,0
660362.147,0,0,0,0.999,0.999,1.000,-90.00,180.00,-45.00,CLOSED,0
660362.197,0,0,0,1.000,1.000,1.000,-90.00,180.00,-45.00,CLOSED,0
660362.247,0,0,0,1.000,1.000,1.000,-90.00,180.00,-45.00,CLOSED,0
660362.297,0,0,0,1.000,1.000,1.000,-90.00,180.00,-45.00,CLOSED,0
660362.347,0,0,0,1.000,1.000,1.000,-90.00,180.00,-45.00,CLOSED,0
660362.397,0,0,0,1.000,1.000,1.000,-90.00,180.00,-45.00,CLOSED,0
660362.447,0,0,0,1.000,1.000,1.000,-90.00,180.00,-45.00,CLOSED,0
660362.497,0,0,0,1.000,1.000,1.000,-90.00,180.00,-45.00,CLOSED,0
660362.552,0,0,0,1.000,1.000,1.000,-90.00,180.00,-45.00,CLOSED,0
660362.597,0,0,0,1.000,1.000,1.000,-90.00,180.00,-45.00,CLOSED,0
660362.647,0,0,0,1.000,1.000,1.000,-90.00,180.00,-45.00,CLOSED,0
660362.697,0,0,0,1.000,1.000,1.000,-90.00,180.00,-45.00,CLOSED,0
660362.748,0,0,0,1.000,1.000,1.000,-90.00,180.00,-45.00,CLOSED,0
660362.797,0,0,0,1.000,1.000,1.000,-90.00,180.00,-45.00,CLOSED,0
660362.847,0,0,0,1.000,1.000,1.000,-90.00,180.00,-45.00,CLOSED,0
660362.897,0,0,0,1.000,1.000,1.000,-90.00,180.00,-45.00,CLOSED,0
660362.947,0,0,0,1.000,1.000,1.000,-90.00,180.00,-45.00,CLOSED,0
660362.997,0,0,0,1.000,1.000,1.000,-90.00,180.00,-45.00,CLOSED,0
660363.047,0,0,0,1.000,1.000,1.000,-90.00,180.00,-45.00,CLOSED,0
660363.097,0,0,0,1.000,1.000,1.000,-90.00,180.00,-45.00,CLOSED,0
660363.147,0,0,0,1.000,1.000,1.000,-90.00,180.00,-45.00,CLOSED,0
660363.197,0,0,0,1.000,1.000,1.000,-90.00,180.00,-45.00,CLOSED,0
660363.254,0,0,0,1.000,1.000,1.000,-90.00,180.00,-45.00,CLOSED,0
660363.299,0,0,0,1.000,1.000,1.000,-90.00,180.00,-45.00,CLOSED,0
660363.348,0,0,0,1.000,1.000,1.000,-90.00,180.00,-45.00,CLOSED,0
660363.397,0,0,0,1.000,1.000,1.000,-90.00,180.00,-45.00,CLOSED,0
660363.452,0,0,0,1.000,1.000,1.000,-90.00,180.00,-45.00,CLOSED,0
660363.502,0,0,0,1.000,1.000,1.000,-90.00,180.00,-45.00,CLOSED,0
660363.548,0,0,0,1.000,1.000,1.000,-90.00,180.00,-45.00,CLOSED,0
660363.597,0,0,0,1.000,1.000,1.000,-90.00,180.00,-45.00,CLOSED,0
660363.647,0,0,0,1.000,1.000,1.000,-90.00,180.00,-45.00,CLOSED,0
660363.697,0,0,0,1.000,1.000,1.000,-90.00,180.00,-45.00,CLOSED,0
660363.747,0,0,0,1.000,1.000,1.000,-90.00,180.00,-45.00,CLOSED,0
660363.798,0,0,0,1.000,1.000,1.000,-90.00,180.00,-45.00,CLOSED,0
660363.847,0,0,0,1.000,1.000,1.000,-90.00,180.00,-45.00,CLOSED,0
660363.897,0,0,0,1.000,1.000,1.000,-90.00,180.00,-45.00,CLOSED,0
660363.948,0,0,0,1.000,1.000,1.000,-90.00,180.00,-45.00,CLOSED,0
660363.997,0,0,0,1.000,1.000,1.000,-90.00,180.00,-45.00,CLOSED,0
660364.048,0,0,0,1.000,1.000,1.000,-90.00,180.00,-45.00,CLOSED,0
660364.098,0,0,0,1.000,1.000,1.000,-90.00,180.00,-45.00,CLOSED,0
660364.147,0,0,0,1.000,1.000,1.000,-90.00,180.00,-45.00,CLOSED,0
660364.197,0,0,0,1.000,1.000,1.000,-90.00,180.00,-45.00,CLOSED,0
660364.247,0,0,0,1.000,1.000,1.000,-90.00,180.00,-45.00,CLOSED,0
660364.297,0,0,0,1.000,1.000,1.000,-90.00,180.00,-45.00,CLOSED,0
660364.347,0,0,0,1.000,1.000,1.000,-90.00,180.00,-45.00,CLOSED,0
660364.397,0,0,0,1.000,1.000,1.000,-90.00,180.00,-45.00,CLOSED,0
660364.447,0,0,0,1.000,1.000,1.000,-90.00,180.00,-45.00,CLOSED,0
660364.497,0,0,0,1.000,1.000,1.000,-90.00,180.00,-45.00,CLOSED,0
660364.547,0,0,0,1.000,1.000,1.000,-90.00,180.00,-45.00,CLOSED,0
660364.597,0,0,0,1.000,1.000,1.000,-90.00,180.00,-45.00,CLOSED,0
660364.647,0,0,0,1.000,1.000,1.000,-90.00,180.00,-45.00,CLOSED,0
660364.697,0,0,0,1.000,1.000,1.000,-90.00,180.00,-45.00,CLOSED,0
660364.747,0,0,0,1.000,1.000,1.000,-90.00,180.00,-45.00,CLOSED,0
660364.798,0,0,0,1.000,1.000,1.000,-90.00,180.00,-45.00,CLOSED,0
660364.847,0,0,0,1.000,1.000,1.000,-90.00,180.00,-45.00,CLOSED,0
660364.897,0,0,0,1.000,1.000,1.000,-90.00,180.00,-45.00,CLOSED,0
660364.947,0,0,0,1.000,1.000,1.000,-90.00,180.00,-45.00,CLOSED,0
660364.997,0,0,0,1.000,1.000,1.000,-90.00,180.00,-45.00,CLOSED,0
660365.047,0,0,0,1.000,1.000,1.000,-90.00,180.00,-45.00,CLOSED,0
660365.097,0,0,0,1.000,1.000,1.000,-90.00,180.00,-45.00,CLOSED,0
660365.148,0,0,0,1.000,1.000,1.000,-90.00,180.00,-45.00,CLOSED,0
660365.198,0,0,0,1.000,1.000,1.000,-90.00,180.00,-45.00,CLOSED,0
660365.247,0,0,0,1.000,1.000,1.000,-90.00,180.00,-45.00,CLOSED,0
660365.297,0,0,0,1.000,1.000,1.000,-90.00,180.00,-45.00,CLOSED,0
660365.347,0,0,0,1.000,1.000,1.000,-90.00,180.00,-45.00,CLOSED,0
660365.397,0,0,0,1.000,1.000,1.000,-90.00,180.00,-45.00,CLOSED,0
660365.447,0,0,0,1.000,1.000,1.000,-90.00,180.00,-45.00,CLOSED,0
660365.498,0,0,0,1.000,1.000,1.000,-90.00,180.00,-45.00,CLOSED,0
660365.547,0,0,0,1.000,1.000,1.000,-90.00,180.00,-45.00,CLOSED,0
660365.597,0,0,0,1.000,1.000,1.000,-90.00,180.00,-45.00,CLOSED,0
660365.647,0,0,0,1.000,1.000,1.000,-90.00,180.00,-45.00,CLOSED,0
660365.697,0,0,0,1.000,1.000,1.000,-90.00,180.00,-45.00,CLOSED,0
660365.747,0,0,0,1.000,1.000,1.000,-90.00,180.00,-45.00,CLOSED,0
660365.798,0,0,0,1.000,1.000,1.000,-90.00,180.00,-45.00,CLOSED,0
660365.847,0,0,0,1.000,1.000,1.000,-90.00,180.00,-45.00,CLOSED,0
660365.897,0,0,0,1.000,1.000,1.000,-90.00,180.00,-45.00,CLOSED,0
660365.947,0,0,0,1.000,1.000,1.000,-90.00,180.00,-45.00,CLOSED,0
660365.998,0,0,0,1.000,1.000,1.000,-90.00,180.00,-45.00,CLOSED,0
660366.047,0,0,0,1.000,1.000,1.000,-90.00,180.00,-45.00,CLOSED,0
660366.097,0,0,0,1.000,1.000,1.000,-90.00,180.00,-45.00,CLOSED,0
660366.147,0,0,0,1.000,1.000,1.000,-90.00,180.00,-45.00,CLOSED,0
660366.204,0,0,0,1.000,1.000,1.000,-90.00,180.00,-45.00,CLOSED,0
660366.248,0,0,0,1.000,1.000,1.000,-90.00,180.00,-45.00,CLOSED,0
660366.297,0,0,0,1.000,1.000,1.000,-90.00,180.00,-45.00,CLOSED,0
660366.347,0,0,0,1.000,1.000,1.000,-90.00,180.00,-45.00,CLOSED,0
660366.397,0,0,0,1.000,1.000,1.000,-90.00,180.00,-45.00,CLOSED,0
660366.447,0,0,0,1.000,1.000,1.000,-90.00,180.00,-45.00,CLOSED,0
660366.497,0,0,0,1.000,1.000,1.000,-90.00,180.00,-45.00,CLOSED,0
660366.547,0,0,0,1.000,1.000,1.000,-90.00,180.00,-45.00,CLOSED,0
660366.597,0,0,0,1.000,1.000,1.000,-90.00,180.00,-45.00,CLOSED,0
660366.647,0,0,0,1.000,1.000,1.000,-90.00,180.00,-45.00,CLOSED,0
660366.697,0,0,0,1.000,1.000,1.000,-90.00,180.00,-45.00,CLOSED,0
660366.747,0,0,0,1.000,1.000,1.000,-90.00,180.00,-45.00,CLOSED,0
660366.797,0,0,0,1.000,1.000,1.000,-90.00,180.00,-45.00,CLOSED,0
660366.847,0,0,0,1.000,1.000,1.000,-90.00,180.00,-45.00,CLOSED,0
660366.897,0,0,0,1.000,1.000,1.000,-90.00,180.00,-45.00,CLOSED,0
660366.948,0,0,0,1.000,1.000,1.000,-90.00,180.00,-45.00,CLOSED,0
660366.997,0,0,0,1.000,1.000,1.000,-90.00,180.00,-45.00,CLOSED,0
660367.047,0,0,0,1.000,1.000,1.000,-90.00,180.00,-45.00,CLOSED,0
660367.097,0,0,0,1.000,1.000,1.000,-90.00,180.00,-45.00,CLOSED,0
660367.147,0,0,0,1.000,1.000,1.000,-90.00,180.00,-45.00,CLOSED,0
660367.197,0,0,0,1.000,1.000,1.000,-90.00,180.00,-45.00,CLOSED,0
660367.247,0,0,0,1.000,1.000,1.000,-90.00,180.00,-45.00,CLOSED,0
660367.297,0,0,0,1.000,1.000,1.000,-90.00,180.00,-45.00,CLOSED,0
660367.347,0,0,0,1.000,1.000,1.000,-90.00,180.00,-45.00,CLOSED,0
660367.397,0,0,0,1.000,1.000,1.000,-90.00,180.00,-45.00,CLOSED,0
660367.447,0,0,0,1.000,1.000,1.000,-90.00,180.00,-45.00,CLOSED,0
660367.497,0,0,0,1.000,1.000,1.000,-90.00,180.00,-45.00,CLOSED,0
660367.547,0,0,0,1.000,1.000,1.000,-90.00,180.00,-45.00,CLOSED,0
660367.597,0,0,0,1.000,1.000,1.000,-90.00,180.00,-45.00,CLOSED,0
660367.647,0,0,0,1.000,1.000,1.000,-90.00,180.00,-45.00,CLOSED,0
660367.697,0,0,0,1.000,1.000,1.000,-90.00,180.00,-45.00,CLOSED,0
660367.747,0,0,0,1.000,1.000,1.000,-90.00,180.00,-45.00,CLOSED,0
660367.798,0,0,0,1.000,1.000,1.000,-90.00,180.00,-45.00,CLOSED,0
660367.848,0,0,0,1.000,1.000,1.000,-90.00,180.00,-45.00,CLOSED,0
660367.897,0,0,0,1.000,1.000,1.000,-90.00,180.00,-45.00,CLOSED,0
660367.947,0,0,0,1.000,1.000,1.000,-90.00,180.00,-45.00,CLOSED,0
660367.997,0,0,0,1.000,1.000,1.000,-90.00,180.00,-45.00,CLOSED,0
660368.047,0,0,0,1.000,1.000,1.000,-90.00,180.00,-45.00,CLOSED,0
660368.097,0,0,0,1.000,1.000,1.000,-90.00,180.00,-45.00,CLOSED,0
660368.147,0,0,0,1.000,1.000,1.000,-90.00,180.00,-45.00,CLOSED,0
660368.197,0,0,0,1.000,1.000,1.000,-90.00,180.00,-45.00,CLOSED,0
660368.247,0,0,0,1.000,1.000,1.000,-90.00,180.00,-45.00,CLOSED,0
660368.298,0,0,0,1.000,1.000,1.000,-90.00,180.00,-45.00,CLOSED,0
660368.348,0,0,0,1.000,1.000,1.000,-90.00,180.00,-45.00,CLOSED,0
660368.398,0,0,0,1.000,1.000,1.000,-90.00,180.00,-45.00,CLOSED,0
660368.453,0,0,0,1.000,1.000,1.000,-90.00,180.00,-45.00,CLOSED,0
660368.500,0,0,0,1.000,1.000,1.000,-90.00,180.00,-45.00,CLOSED,0
660368.548,0,0,0,1.000,1.000,1.000,-90.00,180.00,-45.00,CLOSED,0
660368.597,0,0,0,1.000,1.000,1.000,-90.00,180.00,-45.00,CLOSED,0
660368.647,0,0,0,1.000,1.000,1.000,-90.00,180.00,-45.00,CLOSED,0
660368.697,0,0,0,1.000,1.000,1.000,-90.00,180.00,-45.00,CLOSED,0
660368.747,0,0,0,1.000,1.000,1.000,-90.00,180.00,-45.00,CLOSED,0
660368.797,0,0,0,1.000,1.000,1.000,-90.00,180.00,-45.00,CLOSED,0
660368.847,0,0,0,1.000,1.000,1.000,-90.00,180.00,-45.00,CLOSED,0
660368.897,0,0,0,1.000,1.000,1.000,-90.00,180.00,-45.00,CLOSED,0
660368.947,0,0,0,1.000,1.000,1.000,-90.00,180.00,-45.00,CLOSED,0
660368.997,0,0,0,1.000,1.000,1.000,-90.00,180.00,-45.00,CLOSED,0
660369.047,0,0,0,1.000,1.000,1.000,-90.00,180.00,-45.00,CLOSED,0
660369.097,0,0,0,1.000,1.000,1.000,-90.00,180.00,-45.00,CLOSED,0
660369.148,0,0,0,1.000,1.000,1.000,-90.00,180.00,-45.00,CLOSED,0
660369.197,0,0,0,0.999,1.000,1.000,-90.00,180.00,-45.00,CLOSED,0
660369.248,0,0,0,0.992,1.000,1.000,-90.00,180.00,-45.00,CLOSED,0
660369.297,0,0,0,0.991,1.000,1.000,-90.00,180.00,-45.00,CLOSED,0
660369.347,0,0,0,0.997,1.000,1.000,-90.00,180.00,-45.00,CLOSED,0
660369.397,0,0,0,0.992,1.000,1.000,-90.00,180.00,-45.00,CLOSED,0
660369.447,0,0,0,0.989,1.000,1.000,-90.00,180.00,-45.00,CLOSED,0
660369.498,0,0,0,0.995,1.000,1.000,-90.00,180.00,-45.00,CLOSED,0
660369.547,0,0,0,0.987,1.000,1.000,-90.00,180.00,-45.00,CLOSED,0
660369.597,0,0,0,0.986,1.000,1.000,-90.00,180.00,-45.00,CLOSED,0
660369.647,0,0,0,0.989,1.000,1.000,-90.00,180.00,-45.00,CLOSED,0
660369.697,0,0,0,0.998,0.999,1.000,-90.00,180.00,-45.00,CLOSED,0
660369.748,0,0,0,0.999,0.950,1.000,-90.00,180.00,-45.00,CLOSED,0
660369.797,0,0,0,0.999,0.765,1.000,-90.00,180.00,-45.00,CLOSED,0
660369.847,0,0,0,0.995,0.989,1.000,-90.00,180.00,-45.00,CLOSED,0
660369.897,0,0,0,0.985,0.999,1.000,-90.00,180.00,-45.00,CLOSED,0
660369.947,0,0,0,0.989,1.000,1.000,-90.00,180.00,-45.00,CLOSED,0
660369.997,0,0,0,0.994,1.000,1.000,-90.00,180.00,-45.00,CLOSED,0
660370.047,0,0,0,0.997,1.000,1.000,-90.00,180.00,-45.00,CLOSED,0
660370.099,0,0,0,0.999,1.000,1.000,-90.00,180.00,-45.00,CLOSED,0
660370.147,0,0,0,0.999,1.000,1.000,-90.00,180.00,-45.00,CLOSED,0
660370.197,0,0,0,0.996,1.000,1.000,-90.00,180.00,-45.00,CLOSED,0
660370.247,0,0,0,0.999,1.000,1.000,-90.00,180.00,-45.00,CLOSED,0
660370.300,0,0,0,1.000,1.000,1.000,-90.00,180.00,-45.00,CLOSED,0
660370.348,0,0,0,1.000,1.000,1.000,-90.00,180.00,-45.00,CLOSED,0
660370.397,0,0,0,1.000,1.000,0.999,-90.00,180.00,-45.00,CLOSED,0
660370.447,0,0,0,1.000,1.000,0.998,-90.00,180.00,-45.00,CLOSED,0
660370.499,0,0,0,1.000,1.000,0.996,-90.00,180.00,-45.00,CLOSED,0
660370.547,0,0,0,1.000,1.000,0.994,-90.00,180.00,-45.00,CLOSED,0
660370.599,0,0,0,1.000,1.000,0.993,-90.00,180.00,-45.00,CLOSED,0
660370.648,0,0,0,1.000,1.000,0.992,-90.00,180.00,-45.00,CLOSED,0
660370.697,0,1,0,1.000,1.000,0.990,-90.00,177.03,-45.00,CLOSED,1
660370.748,0,1,0,1.000,1.000,0.988,-90.00,174.00,-45.00,CLOSED,0
660370.798,0,1,0,1.000,1.000,0.987,-90.00,171.03,-45.00,CLOSED,1
660370.847,0,1,0,1.000,1.000,0.986,-90.00,168.04,-45.00,CLOSED,0
660370.898,0,1,0,1.000,1.000,0.986,-90.00,165.00,-45.00,CLOSED,1
660370.947,0,1,0,1.000,1.000,0.989,-90.00,162.07,-45.00,CLOSED,0
660370.997,0,1,0,1.000,1.000,0.991,-90.00,159.06,-45.00,CLOSED,0
660371.048,0,1,0,1.000,1.000,0.993,-90.00,156.03,-45.00,CLOSED,1
660371.098,0,1,0,1.000,0.999,0.994,-90.00,153.02,-45.00,CLOSED,0
660371.147,0,1,0,1.000,0.999,0.994,-90.00,150.03,-45.00,CLOSED,0
660371.197,0,1,0,1.000,0.999,0.994,-90.00,147.06,-45.00,CLOSED,1
660371.247,0,1,0,1.000,0.999,0.994,-90.00,144.04,-45.00,CLOSED,0
660371.297,0,1,0,1.000,0.999,0.993,-90.00,141.06,-45.00,CLOSED,1
660371.347,0,1,0,1.000,0.999,0.993,-90.00,138.07,-45.00,CLOSED,0
660371.397,0,1,0,1.000,0.999,0.991,-90.00,135.05,-45.00,CLOSED,1
660371.447,0,1,0,1.000,0.999,0.989,-90.00,132.07,-45.00,CLOSED,0
660371.497,0,1,0,1.000,1.000,0.989,-90.00,129.05,-45.00,CLOSED,0
660371.547,0,1,0,1.000,1.000,0.988,-90.00,126.04,-45.00,CLOSED,1
660371.598,0,1,0,1.000,1.000,0.991,-90.00,123.00,-45.00,CLOSED,0
660371.647,0,1,0,1.000,1.000,0.995,-90.00,120.04,-45.00,CLOSED,0
660371.697,0,1,0,1.000,1.000,0.997,-90.00,117.04,-45.00,CLOSED,1
660371.748,0,1,0,1.000,1.000,0.998,-90.00,114.01,-45.00,CLOSED,0
660371.798,0,1,0,1.000,1.000,0.999,-90.00,110.99,-45.00,CLOSED,1
660371.847,0,1,0,1.000,1.000,0.999,-90.00,108.04,-45.00,CLOSED,0
660371.897,0,1,0,1.000,1.000,0.999,-90.00,105.07,-45.00,CLOSED,0
660371.947,0,1,0,1.000,1.000,0.999,-90.00,102.03,-45.00,CLOSED,1
660371.998,0,1,0,1.000,1.000,0.999,-90.00,98.98,-45.00,CLOSED,0
660372.047,0,1,0,1.000,1.000,0.998,-90.00,96.03,-45.00,CLOSED,1
660372.097,0,1,0,1.000,1.000,0.997,-90.00,93.08,-45.00,CLOSED,0
660372.147,0,1,0,1.000,1.000,0.994,-90.00,90.03,-45.00,CLOSED,0
660372.197,0,1,0,1.000,0.999,0.988,-90.00,90.00,-45.00,CLOSED,1
660372.247,0,1,0,1.000,0.999,0.982,-90.00,90.00,-45.00,CLOSED,0
660372.298,0,1,0,1.000,0.998,0.985,-90.00,90.00,-45.00,CLOSED,0
660372.347,0,1,0,1.000,0.997,0.991,-90.00,90.00,-45.00,CLOSED,0
660372.396,0,1,0,1.000,0.997,0.995,-90.00,90.00,-45.00,CLOSED,0
660372.447,0,1,0,1.000,0.996,0.997,-90.00,90.00,-45.00,CLOSED,0
660372.497,0,1,0,1.000,0.995,0.998,-90.00,90.00,-45.00,CLOSED,0
660372.547,0,1,0,1.000,0.996,0.999,-90.00,90.00,-45.00,CLOSED,0
660372.597,0,1,0,1.000,0.997,0.998,-90.00,90.00,-45.00,CLOSED,0
660372.647,0,1,0,1.000,0.997,0.998,-90.00,90.00,-45.00,CLOSED,0
660372.698,0,1,0,1.000,0.998,0.997,-90.00,90.00,-45.00,CLOSED,0
660372.748,0,1,0,1.000,0.998,0.994,-90.00,90.00,-45.00,CLOSED,0
660372.797,0,1,0,1.000,0.999,0.988,-90.00,90.00,-45.00,CLOSED,0
660372.847,0,1,0,1.000,0.999,0.979,-90.00,90.00,-45.00,CLOSED,0
660372.901,0,1,0,1.000,0.999,0.976,-90.00,90.00,-45.00,CLOSED,0
660372.948,0,1,0,1.000,0.999,0.981,-90.00,90.00,-45.00,CLOSED,0
660372.998,0,1,0,1.000,0.999,0.984,-90.00,90.00,-45.00,CLOSED,0
660373.048,0,1,0,1.000,0.998,0.988,-90.00,90.00,-45.00,CLOSED,0
660373.097,0,1,0,1.000,0.998,0.993,-90.00,90.00,-45.00,CLOSED,0
660373.149,0,1,0,1.000,0.998,0.995,-90.00,90.00,-45.00,CLOSED,0
660373.198,0,1,0,1.000,0.998,0.997,-90.00,90.00,-45.00,CLOSED,0
660373.248,0,1,0,1.000,0.999,0.998,-90.00,90.00,-45.00,CLOSED,0
660373.298,0,1,0,1.000,0.999,0.998,-90.00,90.00,-45.00,CLOSED,0
660373.347,0,1,0,1.000,0.999,0.999,-90.00,90.00,-45.00,CLOSED,0
660373.397,0,1,0,1.000,0.999,0.999,-90.00,90.00,-45.00,CLOSED,0
660373.447,0,1,0,1.000,1.000,0.999,-90.00,90.00,-45.00,CLOSED,0
660373.497,0,1,0,1.000,1.000,0.998,-90.00,90.00,-45.00,CLOSED,0
660373.547,0,1,0,1.000,1.000,0.998,-90.00,90.00,-45.00,CLOSED,0
660373.597,0,1,0,1.000,1.000,0.998,-90.00,90.00,-45.00,CLOSED,0
660373.647,0,1,0,1.000,1.000,0.999,-90.00,90.00,-45.00,CLOSED,0
660373.697,0,1,0,1.000,1.000,0.999,-90.00,90.00,-45.00,CLOSED,0
660373.748,0,1,0,1.000,1.000,1.000,-90.00,90.00,-45.00,CLOSED,0
660373.799,0,1,0,1.000,1.000,1.000,-90.00,90.00,-45.00,CLOSED,0
660373.848,0,1,0,1.000,1.000,1.000,-90.00,90.00,-45.00,CLOSED,0
660373.901,0,1,0,1.000,1.000,1.000,-90.00,90.00,-45.00,CLOSED,0
660373.948,0,1,0,1.000,1.000,1.000,-90.00,90.00,-45.00,CLOSED,0
660373.997,0,1,0,1.000,1.000,1.000,-90.00,90.00,-45.00,CLOSED,0
660374.047,0,1,0,1.000,1.000,1.000,-90.00,90.00,-45.00,CLOSED,0
660374.097,0,1,0,1.000,1.000,1.000,-90.00,90.00,-45.00,CLOSED,0
660374.147,0,1,0,1.000,1.000,1.000,-90.00,90.00,-45.00,CLOSED,0
660374.197,0,1,0,1.000,1.000,1.000,-90.00,90.00,-45.00,CLOSED,0
660374.247,0,1,0,1.000,1.000,0.999,-90.00,90.00,-45.00,CLOSED,0
660374.297,0,1,0,1.000,1.000,0.999,-90.00,90.00,-45.00,CLOSED,0
660374.347,0,1,0,1.000,1.000,0.999,-90.00,90.00,-45.00,CLOSED,0
660374.397,0,1,0,1.000,1.000,0.999,-90.00,90.00,-45.00,CLOSED,0
660374.447,0,1,0,1.000,1.000,0.999,-90.00,90.00,-45.00,CLOSED,0
660374.497,0,1,0,1.000,1.000,0.999,-90.00,90.00,-45.00,CLOSED,0
660374.548,0,1,0,1.000,1.000,0.999,-90.00,90.00,-45.00,CLOSED,0
660374.598,0,1,0,1.000,1.000,0.999,-90.00,90.00,-45.00,CLOSED,0
660374.649,0,1,0,1.000,1.000,0.999,-90.00,90.00,-45.00,CLOSED,0
660374.698,0,1,0,1.000,1.000,0.999,-90.00,90.00,-45.00,CLOSED,0
660374.747,0,1,0,1.000,1.000,0.998,-90.00,90.00,-45.00,CLOSED,0
660374.797,0,1,0,1.000,1.000,0.996,-90.00,90.00,-45.00,CLOSED,0
660374.847,0,1,0,1.000,0.999,0.992,-90.00,90.00,-45.00,CLOSED,0
660374.897,0,1,0,1.000,0.998,0.985,-90.00,90.00,-45.00,CLOSED,0
660374.947,0,1,0,1.000,0.988,0.978,-90.00,90.00,-45.00,CLOSED,0
660374.997,0,1,0,1.000,0.924,0.974,-90.00,90.00,-45.00,CLOSED,0
660375.047,0,1,0,1.000,0.623,0.976,-90.00,90.00,-45.00,CLOSED,0
660375.097,0,1,0,1.000,0.959,0.989,-90.00,90.00,-45.00,CLOSED,0
660375.147,0,1,0,1.000,0.995,0.995,-90.00,90.00,-45.00,CLOSED,0
660375.197,0,1,0,1.000,0.999,0.996,-90.00,90.00,-45.00,CLOSED,0
660375.247,0,1,0,1.000,1.000,0.998,-90.00,90.00,-45.00,CLOSED,0
660375.297,0,1,0,1.000,1.000,0.998,-90.00,90.00,-45.00,CLOSED,0
660375.347,0,1,0,1.000,1.000,0.999,-90.00,90.00,-45.00,CLOSED,0
660375.397,0,1,0,1.000,1.000,0.999,-90.00,90.00,-45.00,CLOSED,0
660375.447,0,1,0,1.000,1.000,0.999,-90.00,90.00,-45.00,CLOSED,0
660375.497,0,1,0,1.000,0.999,1.000,-90.00,90.00,-45.00,CLOSED,0
660375.547,0,1,0,1.000,0.999,1.000,-90.00,90.00,-45.00,CLOSED,0
660375.597,0,1,0,1.000,0.998,1.000,-90.00,90.00,-45.00,CLOSED,0
660375.647,0,1,0,1.000,0.996,1.000,-90.00,90.00,-45.00,CLOSED,0
660375.697,0,1,0,0.999,0.994,1.000,-90.00,90.00,-45.00,CLOSED,0
660375.747,0,1,0,0.999,0.986,1.000,-90.00,90.00,-45.00,CLOSED,0
660375.797,0,1,0,0.999,0.981,1.000,-90.00,90.00,-45.00,CLOSED,0
660375.847,0,1,0,0.999,0.985,1.000,-90.00,90.00,-45.00,CLOSED,0
660375.898,0,1,0,0.999,0.996,1.000,-90.00,90.00,-45.00,CLOSED,0
660375.948,0,0,0,0.997,0.996,1.000,-90.00,93.01,-45.00,CLOSED,1
660375.999,0,0,0,0.997,1.000,1.000,-90.00,96.10,-45.00,CLOSED,0
660376.048,0,0,0,0.994,1.000,1.000,-90.00,99.02,-45.00,CLOSED,1
660376.098,0,0,0,0.998,1.000,1.000,-90.00,102.02,-45.00,CLOSED,0
660376.148,0,0,0,0.999,1.000,1.000,-90.00,105.02,-45.00,CLOSED,0
660376.198,0,0,0,1.000,1.000,1.000,-90.00,108.01,-45.00,CLOSED,1
660376.249,0,0,0,1.000,1.000,1.000,-90.00,111.06,-45.00,CLOSED,0
660376.298,0,0,0,1.000,1.000,1.000,-90.00,114.01,-45.00,CLOSED,1
660376.348,0,0,0,1.000,1.000,1.000,-90.00,116.98,-45.00,CLOSED,0
660376.397,0,0,0,0.999,1.000,1.000,-90.00,119.96,-45.00,CLOSED,0
660376.448,0,0,0,1.000,1.000,1.000,-90.00,123.01,-45.00,CLOSED,1
660376.498,0,0,0,1.000,1.000,1.000,-90.00,126.02,-45.00,CLOSED,0
660376.548,0,0,0,1.000,1.000,1.000,-90.00,128.99,-45.00,CLOSED,0
660376.598,0,0,0,1.000,1.000,1.000,-90.00,132.01,-45.00,CLOSED,1
660376.647,0,0,0,1.000,1.000,1.000,-90.00,134.97,-45.00,CLOSED,0
660376.697,0,0,0,1.000,1.000,1.000,-90.00,137.98,-45.00,CLOSED,0
660376.748,0,0,0,1.000,1.000,1.000,-90.00,141.00,-45.00,CLOSED,1
660376.798,0,0,0,1.000,1.000,1.000,-90.00,143.99,-45.00,CLOSED,0
660376.848,0,0,0,1.000,1.000,1.000,-90.00,147.00,-45.00,CLOSED,0
660376.898,0,0,0,1.000,1.000,1.000,-90.00,150.01,-45.00,CLOSED,1
660376.948,0,0,0,1.000,1.000,1.000,-90.00,152.99,-45.00,CLOSED,0
660376.997,0,0,0,1.000,1.000,1.000,-90.00,155.97,-45.00,CLOSED,0
660377.048,0,0,0,1.000,1.000,1.000,-90.00,159.00,-45.00,CLOSED,1
660377.098,0,0,0,1.000,1.000,1.000,-90.00,162.00,-45.00,CLOSED,0
660377.149,0,0,0,1.000,1.000,1.000,-90.00,165.05,-45.00,CLOSED,1
660377.198,0,0,0,1.000,1.000,1.000,-90.00,168.01,-45.00,CLOSED,0
660377.249,0,0,0,1.000,1.000,1.000,-90.00,171.05,-45.00,CLOSED,1
660377.299,0,0,0,1.000,1.000,1.000,-90.00,174.10,-45.00,CLOSED,0
660377.348,0,0,0,1.000,1.000,1.000,-90.00,177.00,-45.00,CLOSED,0
660377.398,0,0,0,1.000,1.000,1.000,-90.00,179.99,-45.00,CLOSED,1
660377.448,0,0,0,1.000,1.000,1.000,-90.00,180.00,-45.00,CLOSED,0
660377.497,0,0,0,1.000,1.000,1.000,-90.00,180.00,-45.00,CLOSED,0
660377.547,0,0,0,1.000,1.000,1.000,-90.00,180.00,-45.00,CLOSED,0
660377.598,0,0,0,1.000,1.000,1.000,-90.00,180.00,-45.00,CLOSED,0
660377.647,0,0,0,1.000,1.000,1.000,-90.00,180.00,-45.00,CLOSED,0
660377.698,0,0,0,1.000,1.000,1.000,-90.00,180.00,-45.00,CLOSED,0
660377.747,0,0,0,1.000,1.000,1.000,-90.00,180.00,-45.00,CLOSED,0
660377.798,0,0,0,1.000,1.000,1.000,-90.00,180.00,-45.00,CLOSED,0
660377.847,0,0,0,1.000,1.000,1.000,-90.00,180.00,-45.00,CLOSED,0
660377.898,0,0,0,1.000,1.000,1.000,-90.00,180.00,-45.00,CLOSED,0
660377.948,0,0,0,1.000,1.000,1.000,-90.00,180.00,-45.00,CLOSED,0
660377.998,0,0,0,1.000,1.000,1.000,-90.00,180.00,-45.00,CLOSED,0
660378.047,0,0,0,1.000,1.000,1.000,-90.00,180.00,-45.00,CLOSED,0
660378.098,0,0,0,1.000,1.000,1.000,-90.00,180.00,-45.00,CLOSED,0
660378.148,0,0,0,1.000,1.000,1.000,-90.00,180.00,-45.00,CLOSED,0
660378.197,0,0,0,1.000,1.000,1.000,-90.00,180.00,-45.00,CLOSED,0
660378.254,0,0,0,1.000,1.000,1.000,-90.00,180.00,-45.00,CLOSED,0
660378.300,0,0,0,1.000,1.000,1.000,-90.00,180.00,-45.00,CLOSED,0
660378.350,0,0,0,1.000,1.000,1.000,-90.00,180.00,-45.00,CLOSED,0
660378.399,0,0,0,1.000,1.000,1.000,-90.00,180.00,-45.00,CLOSED,0
660378.449,0,0,0,1.000,1.000,1.000,-90.00,180.00,-45.00,CLOSED,0
660378.501,0,0,0,1.000,1.000,1.000,-90.00,180.00,-45.00,CLOSED,0
660378.550,0,0,0,1.000,1.000,1.000,-90.00,180.00,-45.00,CLOSED,0
660378.598,0,0,0,1.000,1.000,1.000,-90.00,180.00,-45.00,CLOSED,0
660378.649,0,0,0,1.000,1.000,1.000,-90.00,180.00,-45.00,CLOSED,0
660378.699,0,0,0,1.000,1.000,1.000,-90.00,180.00,-45.00,CLOSED,0
660378.750,0,0,0,1.000,1.000,1.000,-90.00,180.00,-45.00,CLOSED,0
660378.799,0,0,0,1.000,1.000,1.000,-90.00,180.00,-45.00,CLOSED,0
660378.849,0,0,0,1.000,1.000,1.000,-90.00,180.00,-45.00,CLOSED,0
660378.899,0,0,0,1.000,1.000,1.000,-90.00,180.00,-45.00,CLOSED,0
660378.948,0,0,0,1.000,1.000,1.000,-90.00,180.00,-45.00,CLOSED,0
660378.998,0,0,0,1.000,1.000,1.000,-90.00,180.00,-45.00,CLOSED,0
660379.049,0,0,0,1.000,1.000,1.000,-90.00,180.00,-45.00,CLOSED,0
660379.099,0,0,0,1.000,1.000,1.000,-90.00,180.00,-45.00,CLOSED,0
660379.148,0,0,0,1.000,1.000,1.000,-90.00,180.00,-45.00,CLOSED,0
660379.198,0,0,0,1.000,1.000,1.000,-90.00,180.00,-45.00,CLOSED,0
660379.247,0,0,0,1.000,1.000,1.000,-90.00,180.00,-45.00,CLOSED,0
660379.297,0,0,0,1.000,1.000,1.000,-90.00,180.00,-45.00,CLOSED,0
660379.347,0,0,0,1.000,1.000,1.000,-90.00,180.00,-45.00,CLOSED,0
660379.397,0,0,0,1.000,1.000,1.000,-90.00,180.00,-45.00,CLOSED,0
660379.447,0,0,0,1.000,1.000,1.000,-90.00,180.00,-45.00,CLOSED,0
660379.497,0,0,0,1.000,1.000,1.000,-90.00,180.00,-45.00,CLOSED,0
660379.548,0,0,0,1.000,1.000,1.000,-90.00,180.00,-45.00,CLOSED,0
660379.597,0,0,0,1.000,1.000,1.000,-90.00,180.00,-45.00,CLOSED,0
660379.647,0,0,0,1.000,1.000,1.000,-90.00,180.00,-45.00,CLOSED,0
660379.697,0,0,0,1.000,1.000,1.000,-90.00,180.00,-45.00,CLOSED,0
660379.747,0,0,0,1.000,1.000,1.000,-90.00,180.00,-45.00,CLOSED,0
660379.797,0,0,0,1.000,1.000,1.000,-90.00,180.00,-45.00,CLOSED,0
660379.848,0,0,0,1.000,1.000,1.000,-90.00,180.00,-45.00,CLOSED,0
660379.897,0,0,0,1.000,1.000,1.000,-90.00,180.00,-45.00,CLOSED,0
660379.947,0,0,0,1.000,1.000,1.000,-90.00,180.00,-45.00,CLOSED,0
660379.997,0,0,0,1.000,1.000,1.000,-90.00,180.00,-45.00,CLOSED,0
660380.047,0,0,0,1.000,1.000,1.000,-90.00,180.00,-45.00,CLOSED,0
660380.097,0,0,0,1.000,1.000,1.000,-90.00,180.00,-45.00,CLOSED,0
660380.147,0,0,0,1.000,1.000,1.000,-90.00,180.00,-45.00,CLOSED,0
660380.197,0,0,0,1.000,1.000,1.000,-90.00,180.00,-45.00,CLOSED,0
660380.247,0,0,0,1.000,1.000,1.000,-90.00,180.00,-45.00,CLOSED,0
660380.297,0,0,0,1.000,1.000,1.000,-90.00,180.00,-45.00,CLOSED,0
660380.347,0,0,0,1.000,1.000,1.000,-90.00,180.00,-45.00,CLOSED,0
660380.397,0,0,0,1.000,1.000,1.000,-90.00,180.00,-45.00,CLOSED,0
660380.447,0,0,0,1.000,1.000,1.000,-90.00,180.00,-45.00,CLOSED,0
660380.497,0,0,0,1.000,1.000,1.000,-90.00,180.00,-45.00,CLOSED,0
660380.547,0,0,0,1.000,1.000,1.000,-90.00,180.00,-45.00,CLOSED,0
660380.597,0,0,0,1.000,1.000,1.000,-90.00,180.00,-45.00,CLOSED,0
660380.647,0,0,0,1.000,1.000,1.000,-90.00,180.00,-45.00,CLOSED,0
660380.697,0,0,0,1.000,1.000,1.000,-90.00,180.00,-45.00,CLOSED,0
660380.747,0,0,0,1.000,1.000,1.000,-90.00,180.00,-45.00,CLOSED,0
660380.797,0,0,0,1.000,1.000,1.000,-90.00,180.00,-45.00,CLOSED,0
660380.847,0,0,0,1.000,1.000,1.000,-90.00,180.00,-45.00,CLOSED,0
660380.897,0,0,0,1.000,1.000,1.000,-90.00,180.00,-45.00,CLOSED,0
660380.963,0,0,0,1.000,1.000,1.000,-90.00,180.00,-45.00,CLOSED,0
660381.004,0,0,0,1.000,1.000,1.000,-90.00,180.00,-45.00,CLOSED,0
660381.048,0,0,0,1.000,1.000,1.000,-90.00,180.00,-45.00,CLOSED,0
660381.097,0,0,0,1.000,1.000,1.000,-90.00,180.00,-45.00,CLOSED,0
660381.147,0,0,0,1.000,1.000,1.000,-90.00,180.00,-45.00,CLOSED,0
660381.197,0,0,0,1.000,1.000,1.000,-90.00,180.00,-45.00,CLOSED,0
660381.247,0,0,0,1.000,1.000,1.000,-90.00,180.00,-45.00,CLOSED,0
660381.298,0,0,0,1.000,1.000,1.000,-90.00,180.00,-45.00,CLOSED,0
660381.347,0,0,0,1.000,1.000,1.000,-90.00,180.00,-45.00,CLOSED,0
660381.398,0,0,0,1.000,1.000,1.000,-90.00,180.00,-45.00,CLOSED,0
660381.448,0,0,0,1.000,1.000,1.000,-90.00,180.00,-45.00,CLOSED,0
660381.497,0,0,0,1.000,1.000,1.000,-90.00,180.00,-45.00,CLOSED,0
660381.549,0,0,0,1.000,1.000,1.000,-90.00,180.00,-45.00,CLOSED,0
660381.598,0,0,0,1.000,1.000,1.000,-90.00,180.00,-45.00,CLOSED,0
660381.647,0,0,0,1.000,1.000,1.000,-90.00,180.00,-45.00,CLOSED,0
660381.698,0,0,0,1.000,1.000,1.000,-90.00,180.00,-45.00,CLOSED,0
660381.747,0,0,0,1.000,1.000,1.000,-90.00,180.00,-45.00,CLOSED,0
660381.797,0,0,0,1.000,1.000,1.000,-90.00,180.00,-45.00,CLOSED,0
660381.848,0,0,0,1.000,1.000,1.000,-90.00,180.00,-45.00,CLOSED,0
660381.898,0,0,0,1.000,1.000,1.000,-90.00,180.00,-45.00,CLOSED,0
660381.948,0,0,0,1.000,1.000,1.000,-90.00,180.00,-45.00,CLOSED,0
660381.997,0,0,0,1.000,1.000,1.000,-90.00,180.00,-45.00,CLOSED,0
660382.047,0,0,0,1.000,1.000,1.000,-90.00,180.00,-45.00,CLOSED,0
660382.098,0,0,0,1.000,1.000,1.000,-90.00,180.00,-45.00,CLOSED,0
660382.148,0,0,0,1.000,1.000,1.000,-90.00,180.00,-45.00,CLOSED,0
660382.198,0,0,0,1.000,1.000,1.000,-90.00,180.00,-45.00,CLOSED,0
660382.248,0,0,0,1.000,1.000,1.000,-90.00,180.00,-45.00,CLOSED,0
660382.298,0,0,0,1.000,1.000,1.000,-90.00,180.00,-45.00,CLOSED,0
660382.348,0,0,0,1.000,1.000,1.000,-90.00,180.00,-45.00,CLOSED,0
660382.398,0,0,0,0.999,1.000,1.000,-90.00,180.00,-45.00,CLOSED,0
660382.448,0,0,0,0.858,1.000,1.000,-90.00,180.00,-45.00,CLOSED,0
660382.498,0,0,0,0.484,1.000,1.000,-90.00,180.00,-45.00,CLOSED,0
660382.548,0,0,0,0.481,1.000,1.000,-90.00,180.00,-45.00,CLOSED,0
660382.606,0,0,0,0.604,1.000,1.000,-90.00,180.00,-45.00,CLOSED,0
660382.653,0,0,0,0.670,1.000,1.000,-90.00,180.00,-45.00,CLOSED,0
660382.698,0,0,0,0.776,1.000,1.000,-90.00,180.00,-45.00,CLOSED,0
660382.747,0,0,0,0.937,1.000,1.000,-90.00,180.00,-45.00,CLOSED,0
660382.797,0,0,0,0.997,1.000,1.000,-90.00,180.00,-45.00,CLOSED,0
660382.848,0,0,0,1.000,1.000,1.000,-90.00,180.00,-45.00,CLOSED,0
660382.897,0,0,0,1.000,1.000,1.000,-90.00,180.00,-45.00,CLOSED,0
660382.947,0,0,0,1.000,1.000,1.000,-90.00,180.00,-45.00,CLOSED,0
660382.998,3,0,0,1.000,1.000,1.000,-90.00,180.00,-45.00,OPEN,0
660383.048,3,0,0,1.000,1.000,1.000,-90.00,180.00,-45.00,OPEN,0
660383.098,3,0,0,1.000,1.000,1.000,-90.00,180.00,-45.00,OPEN,0
660383.147,3,0,0,1.000,1.000,1.000,-90.00,180.00,-45.00,OPEN,0
660383.198,3,0,0,1.000,1.000,1.000,-90.00,180.00,-45.00,OPEN,0
660383.247,3,0,0,1.000,1.000,1.000,-90.00,180.00,-45.00,OPEN,0
660383.298,3,0,0,1.000,1.000,1.000,-90.00,180.00,-45.00,OPEN,0
660383.348,3,0,0,1.000,1.000,1.000,-90.00,180.00,-45.00,OPEN,0
660383.398,3,0,0,1.000,1.000,1.000,-90.00,180.00,-45.00,OPEN,0
660383.448,3,0,0,1.000,1.000,1.000,-90.00,180.00,-45.00,OPEN,0
660383.498,3,0,0,1.000,1.000,1.000,-90.00,180.00,-45.00,OPEN,0
660383.547,3,0,0,1.000,1.000,1.000,-90.00,180.00,-45.00,OPEN,0
660383.597,3,0,0,1.000,1.000,1.000,-90.00,180.00,-45.00,OPEN,0
660383.648,3,0,0,1.000,1.000,1.000,-90.00,180.00,-45.00,OPEN,0
660383.698,3,0,0,1.000,1.000,1.000,-90.00,180.00,-45.00,OPEN,0
660383.748,3,0,0,1.000,1.000,1.000,-90.00,180.00,-45.00,OPEN,0
660383.797,3,0,0,1.000,1.000,1.000,-90.00,180.00,-45.00,OPEN,0
660383.848,3,0,0,1.000,1.000,1.000,-90.00,180.00,-45.00,OPEN,0
660383.917,3,0,0,1.000,1.000,1.000,-90.00,180.00,-45.00,OPEN,0
660383.951,3,0,0,1.000,1.000,1.000,-90.00,180.00,-45.00,OPEN,0
660383.998,3,0,0,1.000,1.000,1.000,-90.00,180.00,-45.00,OPEN,0
660384.047,3,0,0,1.000,1.000,1.000,-90.00,180.00,-45.00,OPEN,0
660384.098,3,0,0,1.000,1.000,1.000,-90.00,180.00,-45.00,OPEN,0
660384.148,3,0,0,1.000,1.000,1.000,-90.00,180.00,-45.00,OPEN,0
660384.197,3,0,0,1.000,1.000,1.000,-90.00,180.00,-45.00,OPEN,0
660384.248,3,0,0,1.000,1.000,1.000,-90.00,180.00,-45.00,OPEN,0
660384.298,3,0,0,1.000,1.000,1.000,-90.00,180.00,-45.00,OPEN,0
660384.347,3,0,0,1.000,1.000,1.000,-90.00,180.00,-45.00,OPEN,0
660384.397,3,0,0,1.000,1.000,1.000,-90.00,180.00,-45.00,OPEN,0
660384.447,3,0,0,1.000,1.000,1.000,-90.00,180.00,-45.00,OPEN,0
660384.498,3,0,0,1.000,1.000,1.000,-90.00,180.00,-45.00,OPEN,0
660384.548,3,0,0,1.000,1.000,1.000,-90.00,180.00,-45.00,OPEN,0
660384.598,3,0,0,1.000,1.000,1.000,-90.00,180.00,-45.00,OPEN,0
660384.648,3,0,0,1.000,1.000,1.000,-90.00,180.00,-45.00,OPEN,0
660384.698,3,0,0,1.000,1.000,1.000,-90.00,180.00,-45.00,OPEN,0
660384.748,3,0,0,1.000,1.000,1.000,-90.00,180.00,-45.00,OPEN,0
660384.797,3,0,0,1.000,1.000,1.000,-90.00,180.00,-45.00,OPEN,0
660384.847,3,0,0,1.000,1.000,1.000,-90.00,180.00,-45.00,OPEN,0
660384.897,3,0,0,1.000,1.000,1.000,-90.00,180.00,-45.00,OPEN,0
660384.947,3,0,0,1.000,1.000,1.000,-90.00,180.00,-45.00,OPEN,0
660384.997,3,0,0,1.000,1.000,1.000,-90.00,180.00,-45.00,OPEN,0
660385.047,3,0,0,1.000,1.000,1.000,-90.00,180.00,-45.00,OPEN,0
660385.097,3,0,0,1.000,1.000,1.000,-90.00,180.00,-45.00,OPEN,0
660385.147,3,0,0,1.000,1.000,1.000,-90.00,180.00,-45.00,OPEN,0
660385.197,3,0,0,1.000,1.000,1.000,-90.00,180.00,-45.00,OPEN,0
660385.248,3,0,0,1.000,1.000,1.000,-90.00,180.00,-45.00,OPEN,0
660385.298,3,0,0,1.000,1.000,1.000,-90.00,180.00,-45.00,OPEN,0
660385.347,3,0,0,1.000,1.000,1.000,-90.00,180.00,-45.00,OPEN,0
660385.398,3,0,0,1.000,1.000,1.000,-90.00,180.00,-45.00,OPEN,0
660385.447,3,0,0,1.000,1.000,1.000,-90.00,180.00,-45.00,OPEN,0
660385.498,3,0,0,1.000,1.000,1.000,-90.00,180.00,-45.00,OPEN,0
660385.548,3,0,0,1.000,1.000,1.000,-90.00,180.00,-45.00,OPEN,0
660385.597,3,0,0,1.000,1.000,1.000,-90.00,180.00,-45.00,OPEN,0
660385.648,3,0,0,1.000,1.000,1.000,-90.00,180.00,-45.00,OPEN,0
660385.697,3,0,0,1.000,1.000,1.000,-90.00,180.00,-45.00,OPEN,0
660385.749,3,0,0,1.000,1.000,1.000,-90.00,180.00,-45.00,OPEN,0
660385.807,3,0,0,1.000,1.000,1.000,-90.00,180.00,-45.00,OPEN,0
660385.848,3,0,0,1.000,1.000,1.000,-90.00,180.00,-45.00,OPEN,0
660385.897,3,0,0,1.000,1.000,1.000,-90.00,180.00,-45.00,OPEN,0
660385.948,3,0,0,1.000,1.000,1.000,-90.00,180.00,-45.00,OPEN,0
660385.998,3,0,0,1.000,1.000,1.000,-90.00,180.00,-45.00,OPEN,0
660386.048,3,0,0,1.000,1.000,1.000,-90.00,180.00,-45.00,OPEN,0
660386.097,3,0,0,1.000,1.000,1.000,-90.00,180.00,-45.00,OPEN,0
660386.148,3,0,0,1.000,1.000,1.000,-90.00,180.00,-45.00,OPEN,0
660386.198,3,0,0,1.000,1.000,1.000,-90.00,180.00,-45.00,OPEN,0
660386.247,3,0,0,1.000,1.000,1.000,-90.00,180.00,-45.00,OPEN,0
660386.298,3,0,0,1.000,1.000,1.000,-90.00,180.00,-45.00,OPEN,0
660386.347,3,0,0,1.000,1.000,1.000,-90.00,180.00,-45.00,OPEN,0
660386.398,3,0,0,1.000,1.000,1.000,-90.00,180.00,-45.00,OPEN,0
660386.448,3,0,0,1.000,1.000,1.000,-90.00,180.00,-45.00,OPEN,0
660386.498,3,0,0,1.000,1.000,1.000,-90.00,180.00,-45.00,OPEN,0
660386.547,3,0,0,1.000,1.000,1.000,-90.00,180.00,-45.00,OPEN,0
660386.597,3,0,0,1.000,1.000,1.000,-90.00,180.00,-45.00,OPEN,0
660386.648,3,0,0,1.000,1.000,1.000,-90.00,180.00,-45.00,OPEN,0
660386.698,3,0,0,1.000,1.000,1.000,-90.00,180.00,-45.00,OPEN,0
660386.748,3,0,0,1.000,1.000,1.000,-90.00,180.00,-45.00,OPEN,0
660386.798,3,0,0,1.000,1.000,1.000,-90.00,180.00,-45.00,OPEN,0
660386.848,3,0,0,1.000,1.000,1.000,-90.00,180.00,-45.00,OPEN,0
660386.897,3,0,0,1.000,1.000,1.000,-90.00,180.00,-45.00,OPEN,0
660386.948,3,0,0,1.000,1.000,1.000,-90.00,180.00,-45.00,OPEN,0
660386.998,3,0,0,1.000,1.000,1.000,-90.00,180.00,-45.00,OPEN,0
660387.048,3,0,0,1.000,1.000,1.000,-90.00,180.00,-45.00,OPEN,0
660387.099,3,0,0,1.000,1.000,1.000,-90.00,180.00,-45.00,OPEN,0
660387.148,3,0,0,1.000,1.000,1.000,-90.00,180.00,-45.00,OPEN,0
660387.198,3,0,0,1.000,1.000,1.000,-90.00,180.00,-45.00,OPEN,0
660387.247,3,0,0,1.000,1.000,1.000,-90.00,180.00,-45.00,OPEN,0
660387.298,3,0,0,1.000,1.000,1.000,-90.00,180.00,-45.00,OPEN,0
660387.348,3,0,0,1.000,1.000,1.000,-90.00,180.00,-45.00,OPEN,0
660387.398,3,0,0,1.000,1.000,1.000,-90.00,180.00,-45.00,OPEN,0
660387.447,3,0,0,1.000,1.000,1.000,-90.00,180.00,-45.00,OPEN,0
660387.497,3,0,0,1.000,1.000,1.000,-90.00,180.00,-45.00,OPEN,0
660387.547,3,0,0,1.000,1.000,1.000,-90.00,180.00,-45.00,OPEN,0
660387.597,3,0,0,1.000,1.000,1.000,-90.00,180.00,-45.00,OPEN,0
660387.648,3,0,0,1.000,1.000,1.000,-90.00,180.00,-45.00,OPEN,0
660387.698,3,0,0,1.000,1.000,1.000,-90.00,180.00,-45.00,OPEN,0
660387.747,3,0,0,1.000,1.000,1.000,-90.00,180.00,-45.00,OPEN,0
660387.797,3,0,0,1.000,1.000,1.000,-90.00,180.00,-45.00,OPEN,0
660387.847,3,0,0,1.000,1.000,1.000,-90.00,180.00,-45.00,OPEN,0
660387.897,3,0,0,1.000,1.000,1.000,-90.00,180.00,-45.00,OPEN,0
660387.948,3,0,0,1.000,1.000,1.000,-90.00,180.00,-45.00,OPEN,0
660387.998,3,0,0,1.000,1.000,1.000,-90.00,180.00,-45.00,OPEN,0
660388.048,3,0,0,1.000,1.000,1.000,-90.00,180.00,-45.00,OPEN,0
660388.097,3,0,0,1.000,1.000,1.000,-90.00,180.00,-45.00,OPEN,0
660388.147,3,0,0,1.000,1.000,1.000,-90.00,180.00,-45.00,OPEN,0
660388.198,3,0,0,1.000,1.000,1.000,-90.00,180.00,-45.00,OPEN,0
660388.248,3,0,0,1.000,1.000,1.000,-90.00,180.00,-45.00,OPEN,0
660388.298,3,0,0,1.000,1.000,1.000,-90.00,180.00,-45.00,OPEN,0
660388.347,3,0,0,0.999,1.000,1.000,-90.00,180.00,-45.00,OPEN,0
660388.398,3,0,0,0.975,1.000,1.000,-90.00,180.00,-45.00,OPEN,0
660388.448,3,0,0,0.869,1.000,1.000,-90.00,180.00,-45.00,OPEN,0
660388.497,3,0,0,0.666,1.000,1.000,-90.00,180.00,-45.00,OPEN,0
660388.547,3,0,0,0.511,1.000,1.000,-90.00,180.00,-45.00,OPEN,0
660388.598,3,0,0,0.589,1.000,1.000,-90.00,180.00,-45.00,OPEN,0
660388.664,3,0,0,0.639,1.000,1.000,-90.00,180.00,-45.00,OPEN,0
660388.705,3,0,0,0.562,1.000,1.000,-90.00,180.00,-45.00,OPEN,0
660388.748,3,0,0,0.920,1.000,1.000,-90.00,180.00,-45.00,OPEN,0
660388.797,3,0,0,1.000,1.000,1.000,-90.00,180.00,-45.00,OPEN,0
660388.848,3,0,0,1.000,1.000,1.000,-90.00,180.00,-45.00,OPEN,0
660388.898,3,0,0,1.000,1.000,1.000,-90.00,180.00,-45.00,OPEN,0
660388.948,3,0,0,1.000,1.000,1.000,-90.00,180.00,-45.00,OPEN,0
660388.998,3,0,0,1.000,1.000,1.000,-90.00,180.00,-45.00,OPEN,0
660389.047,3,0,0,1.000,1.000,1.000,-90.00,180.00,-45.00,OPEN,0
660389.097,0,0,0,1.000,1.000,1.000,-90.00,180.00,-45.00,OPEN,0
660389.148,0,0,0,1.000,1.000,1.000,-90.00,180.00,-45.00,OPEN,0
660389.197,0,0,0,1.000,1.000,1.000,-90.00,180.00,-45.00,OPEN,0
660389.248,0,0,0,1.000,1.000,1.000,-90.00,180.00,-45.00,OPEN,0
660389.298,0,0,0,1.000,1.000,1.000,-90.00,180.00,-45.00,OPEN,0
660389.347,0,0,0,1.000,1.000,1.000,-90.00,180.00,-45.00,OPEN,0
660389.398,0,0,0,1.000,1.000,1.000,-90.00,180.00,-45.00,OPEN,0
660389.447,0,0,0,1.000,1.000,1.000,-90.00,180.00,-45.00,OPEN,0
660389.501,0,0,0,1.000,1.000,1.000,-90.00,180.00,-45.00,OPEN,0
660389.548,0,0,0,1.000,1.000,1.000,-90.00,180.00,-45.00,OPEN,0
660389.598,0,0,0,1.000,1.000,1.000,-90.00,180.00,-45.00,OPEN,0
660389.647,0,0,0,1.000,1.000,1.000,-90.00,180.00,-45.00,OPEN,0
660389.698,0,0,0,1.000,1.000,1.000,-90.00,180.00,-45.00,OPEN,0
660389.748,0,0,0,1.000,1.000,1.000,-90.00,180.00,-45.00,OPEN,0
660389.797,0,0,0,1.000,1.000,1.000,-90.00,180.00,-45.00,OPEN,0
660389.847,0,0,0,1.000,1.000,1.000,-90.00,180.00,-45.00,OPEN,0
660389.897,0,0,0,1.000,1.000,1.000,-90.00,180.00,-45.00,OPEN,0
660389.948,0,0,0,1.000,1.000,1.000,-90.00,180.00,-45.00,OPEN,0
660389.998,0,0,0,1.000,1.000,1.000,-90.00,180.00,-45.00,OPEN,0
660390.048,0,0,0,1.000,1.000,1.000,-90.00,180.00,-45.00,OPEN,0
660390.098,0,0,0,0.999,1.000,1.000,-90.00,180.00,-45.00,OPEN,0
660390.148,0,0,0,1.000,1.000,1.000,-90.00,180.00,-45.00,OPEN,0
660390.197,0,0,0,1.000,1.000,1.000,-90.00,180.00,-45.00,OPEN,0
660390.248,0,0,0,1.000,1.000,1.000,-90.00,180.00,-45.00,OPEN,0
660390.298,0,0,0,1.000,1.000,1.000,-90.00,180.00,-45.00,OPEN,0
660390.360,0,0,0,1.000,1.000,1.000,-90.00,180.00,-45.00,OPEN,0
660390.401,0,0,0,1.000,1.000,1.000,-90.00,180.00,-45.00,OPEN,0
660390.447,0,0,0,1.000,1.000,1.000,-90.00,180.00,-45.00,OPEN,0
660390.498,0,0,0,1.000,1.000,1.000,-90.00,180.00,-45.00,OPEN,0
660390.547,0,0,0,1.000,1.000,1.000,-90.00,180.00,-45.00,OPEN,0
660390.598,0,0,0,1.000,1.000,1.000,-90.00,180.00,-45.00,OPEN,0
660390.647,0,0,0,1.000,1.000,1.000,-90.00,180.00,-45.00,OPEN,0
660390.698,0,0,0,1.000,1.000,1.000,-90.00,180.00,-45.00,OPEN,0
660390.748,0,0,0,1.000,1.000,1.000,-90.00,180.00,-45.00,OPEN,0
660390.797,0,0,0,1.000,1.000,1.000,-90.00,180.00,-45.00,OPEN,0
660390.848,0,0,0,1.000,1.000,1.000,-90.00,180.00,-45.00,OPEN,0
660390.898,0,0,0,1.000,1.000,1.000,-90.00,180.00,-45.00,OPEN,0
660390.947,0,0,0,1.000,1.000,1.000,-90.00,180.00,-45.00,OPEN,0
660390.997,0,0,0,1.000,1.000,1.000,-90.00,180.00,-45.00,OPEN,0
660391.048,0,0,0,1.000,1.000,1.000,-90.00,180.00,-45.00,OPEN,0
660391.097,0,0,0,1.000,1.000,1.000,-90.00,180.00,-45.00,OPEN,0
660391.148,0,0,0,1.000,1.000,1.000,-90.00,180.00,-45.00,OPEN,0
660391.197,0,0,0,1.000,1.000,1.000,-90.00,180.00,-45.00,OPEN,0
660391.247,0,0,0,1.000,1.000,1.000,-90.00,180.00,-45.00,OPEN,0
660391.297,0,0,0,1.000,1.000,1.000,-90.00,180.00,-45.00,OPEN,0
660391.347,0,0,0,1.000,1.000,1.000,-90.00,180.00,-45.00,OPEN,0
660391.398,0,0,0,1.000,1.000,1.000,-90.00,180.00,-45.00,OPEN,0
660391.448,0,0,0,1.000,1.000,1.000,-90.00,180.00,-45.00,OPEN,0
660391.497,0,0,0,1.000,1.000,1.000,-90.00,180.00,-45.00,OPEN,0
660391.547,0,0,0,1.000,1.000,1.000,-90.00,180.00,-45.00,OPEN,0
660391.597,0,0,0,1.000,1.000,1.000,-90.00,180.00,-45.00,OPEN,0
660391.648,0,0,0,1.000,1.000,1.000,-90.00,180.00,-45.00,OPEN,0
660391.698,0,0,0,1.000,1.000,1.000,-90.00,180.00,-45.00,OPEN,0
660391.747,0,0,0,1.000,1.000,1.000,-90.00,180.00,-45.00,OPEN,0
660391.797,0,0,0,1.000,1.000,1.000,-90.00,180.00,-45.00,OPEN,0
660391.847,0,0,0,1.000,1.000,1.000,-90.00,180.00,-45.00,OPEN,0
660391.898,0,0,0,1.000,1.000,1.000,-90.00,180.00,-45.00,OPEN,0
660391.948,0,0,0,1.000,1.000,1.000,-90.00,180.00,-45.00,OPEN,0
660391.997,0,0,0,1.000,1.000,1.000,-90.00,180.00,-45.00,OPEN,0
660392.047,0,0,0,1.000,1.000,1.000,-90.00,180.00,-45.00,OPEN,0
660392.097,0,0,0,1.000,1.000,1.000,-90.00,180.00,-45.00,OPEN,0
660392.147,0,0,0,1.000,1.000,1.000,-90.00,180.00,-45.00,OPEN,0
660392.198,0,0,0,1.000,1.000,1.000,-90.00,180.00,-45.00,OPEN,0
660392.247,0,0,0,1.000,1.000,1.000,-90.00,180.00,-45.00,OPEN,0
660392.297,0,0,0,1.000,1.000,1.000,-90.00,180.00,-45.00,OPEN,0
660392.355,0,0,0,1.000,1.000,1.000,-90.00,180.00,-45.00,OPEN,0
660392.402,0,0,0,1.000,1.000,1.000,-90.00,180.00,-45.00,OPEN,0
660392.447,0,0,0,1.000,1.000,1.000,-90.00,180.00,-45.00,OPEN,0
660392.498,0,0,0,1.000,1.000,1.000,-90.00,180.00,-45.00,OPEN,0
660392.547,0,0,0,1.000,1.000,1.000,-90.00,180.00,-45.00,OPEN,0
660392.598,0,0,0,1.000,1.000,1.000,-90.00,180.00,-45.00,OPEN,0
660392.648,0,0,0,1.000,1.000,1.000,-90.00,180.00,-45.00,OPEN,0
660392.697,0,0,0,1.000,1.000,1.000,-90.00,180.00,-45.00,OPEN,0
660392.748,0,0,0,1.000,1.000,1.000,-90.00,180.00,-45.00,OPEN,0
660392.797,0,0,0,1.000,1.000,1.000,-90.00,180.00,-45.00,OPEN,0
660392.847,0,0,0,1.000,1.000,1.000,-90.00,180.00,-45.00,OPEN,0
660392.897,0,0,0,1.000,1.000,1.000,-90.00,180.00,-45.00,OPEN,0
660392.947,0,0,0,1.000,1.000,1.000,-90.00,180.00,-45.00,OPEN,0
660392.998,0,0,0,1.000,1.000,1.000,-90.00,180.00,-45.00,OPEN,0
660393.048,0,0,0,1.000,1.000,1.000,-90.00,180.00,-45.00,OPEN,0
660393.097,0,0,0,1.000,1.000,1.000,-90.00,180.00,-45.00,OPEN,0
660393.147,0,0,0,1.000,1.000,1.000,-90.00,180.00,-45.00,OPEN,0
660393.197,0,0,0,1.000,1.000,1.000,-90.00,180.00,-45.00,OPEN,0
660393.247,0,0,0,1.000,1.000,1.000,-90.00,180.00,-45.00,OPEN,0
660393.298,0,0,0,1.000,1.000,1.000,-90.00,180.00,-45.00,OPEN,0
660393.347,0,0,0,1.000,1.000,1.000,-90.00,180.00,-45.00,OPEN,0
660393.398,0,0,0,1.000,1.000,1.000,-90.00,180.00,-45.00,OPEN,0
660393.448,0,0,0,1.000,1.000,1.000,-90.00,180.00,-45.00,OPEN,0
660393.497,0,0,0,1.000,1.000,1.000,-90.00,180.00,-45.00,OPEN,0
660393.547,0,0,0,1.000,1.000,1.000,-90.00,180.00,-45.00,OPEN,0
660393.597,0,0,0,1.000,1.000,1.000,-90.00,180.00,-45.00,OPEN,0
660393.648,0,0,0,1.000,1.000,1.000,-90.00,180.00,-45.00,OPEN,0
660393.697,0,0,0,1.000,1.000,1.000,-90.00,180.00,-45.00,OPEN,0
660393.748,0,0,0,1.000,1.000,1.000,-90.00,180.00,-45.00,OPEN,0
660393.798,0,0,0,1.000,1.000,1.000,-90.00,180.00,-45.00,OPEN,0
