t,hand,elbow,shoulder,p_hand,p_elbow,p_shoulder,J2,J3,J6,grip_state,cmd_sent
655817.089,0,0,0,0.981,1.000,0.999,-90.00,180.00,0.00,OPEN,0
655817.106,0,0,0,0.997,1.000,0.999,-90.00,180.00,0.00,OPEN,0
655817.110,0,0,0,1.000,1.000,0.998,-90.00,180.00,0.00,OPEN,0
655817.114,0,0,0,1.000,1.000,0.999,-90.00,180.00,0.00,OPEN,0
655817.121,0,0,0,1.000,1.000,0.999,-90.00,180.00,0.00,OPEN,0
655817.129,0,0,0,1.000,1.000,0.999,-90.00,180.00,0.00,OPEN,0
655817.134,0,0,0,1.000,1.000,0.999,-90.00,180.00,0.00,OPEN,0
655817.141,0,0,0,1.000,1.000,0.999,-90.00,180.00,0.00,OPEN,0
655817.145,0,0,0,1.000,1.000,0.999,-90.00,180.00,0.00,OPEN,0
655817.151,0,0,0,1.000,1.000,0.999,-90.00,180.00,0.00,OPEN,0
655817.162,0,0,0,1.000,1.000,0.999,-90.00,180.00,0.00,OPEN,0
655817.168,0,0,0,1.000,1.000,0.998,-90.00,180.00,0.00,OPEN,0
655817.175,0,0,0,1.000,1.000,0.998,-90.00,180.00,0.00,OPEN,0
655817.179,0,0,0,1.000,1.000,0.998,-90.00,180.00,0.00,OPEN,0
655817.185,0,0,0,1.000,1.000,0.996,-90.00,180.00,0.00,OPEN,0
655817.190,0,0,0,1.000,1.000,0.995,-90.00,180.00,0.00,OPEN,0
655817.197,0,0,0,1.000,1.000,0.997,-90.00,180.00,0.00,OPEN,0
655817.202,0,0,0,1.000,1.000,0.996,-90.00,180.00,0.00,OPEN,0
655817.205,0,0,0,1.000,1.000,0.997,-90.00,180.00,0.00,OPEN,0
655817.210,0,0,0,1.000,1.000,0.997,-90.00,180.00,0.00,OPEN,0
655817.213,0,0,0,1.000,1.000,0.992,-90.00,180.00,0.00,OPEN,0
655817.218,0,0,0,1.000,1.000,0.988,-90.00,180.00,0.00,OPEN,0
655817.223,0,0,0,1.000,1.000,0.972,-90.00,180.00,0.00,OPEN,0
655817.227,0,0,0,1.000,1.000,0.994,-90.00,180.00,0.00,OPEN,0
655817.230,0,0,0,1.000,1.000,0.996,-90.00,180.00,0.00,OPEN,0
655817.238,0,0,0,1.000,1.000,0.993,-90.00,180.00,0.00,OPEN,0
655817.254,0,0,0,1.000,1.000,0.994,-90.00,180.00,0.00,OPEN,0
655817.303,0,0,0,1.000,1.000,0.993,-90.00,180.00,0.00,OPEN,0
655817.358,0,0,0,1.000,1.000,0.994,-90.00,180.00,0.00,OPEN,0
655817.407,0,0,0,1.000,1.000,0.985,-90.00,180.00,0.00,OPEN,0
655817.455,0,0,0,1.000,1.000,0.889,-90.00,180.00,0.00,OPEN,0
655817.507,0,0,0,1.000,1.000,0.814,-90.00,180.00,0.00,OPEN,0
655817.558,0,0,0,1.000,1.000,0.943,-90.00,180.00,0.00,OPEN,0
655817.604,0,0,0,1.000,1.000,0.984,-90.00,180.00,0.00,OPEN,0
655817.653,0,0,0,1.000,1.000,0.991,-90.00,180.00,0.00,OPEN,0
655817.709,1,0,0,1.000,1.000,0.992,-90.00,180.00,4.50,OPEN,1
655817.753,1,0,0,1.000,1.000,0.995,-90.00,180.00,4.50,OPEN,0
655817.804,1,0,0,1.000,1.000,0.996,-90.00,180.00,4.50,OPEN,0
655817.853,1,0,0,1.000,1.000,0.998,-90.00,180.00,9.00,OPEN,1
655817.904,1,0,0,1.000,1.000,0.998,-90.00,180.00,9.00,OPEN,0
655817.958,1,0,0,1.000,1.000,0.997,-90.00,180.00,13.50,OPEN,1
655818.006,1,0,0,1.000,1.000,0.994,-90.00,180.00,13.50,OPEN,0
655818.058,1,0,0,1.000,1.000,0.994,-90.00,180.00,13.50,OPEN,0
655818.107,1,0,0,1.000,1.000,0.993,-90.00,180.00,18.00,OPEN,1
655818.155,1,0,0,1.000,1.000,0.989,-90.00,180.00,18.00,OPEN,0
655818.208,1,0,0,1.000,1.000,0.981,-90.00,180.00,22.50,OPEN,1
655818.254,1,0,0,1.000,1.000,0.978,-90.00,180.00,22.50,OPEN,0
655818.304,1,0,0,1.000,1.000,0.983,-90.00,180.00,22.50,OPEN,0
655818.353,1,0,0,1.000,1.000,0.993,-90.00,180.00,27.00,OPEN,1
655818.407,1,0,0,1.000,1.000,0.992,-90.00,180.00,27.00,OPEN,0
655818.457,1,0,0,1.000,1.000,0.992,-90.00,180.00,31.50,OPEN,1
655818.508,1,0,0,1.000,1.000,0.989,-90.00,180.00,31.50,OPEN,0
655818.557,1,0,0,1.000,1.000,0.988,-90.00,180.00,31.50,OPEN,0
655818.603,1,0,0,1.000,1.000,0.957,-90.00,180.00,36.00,OPEN,1
655818.654,1,0,0,1.000,1.000,0.920,-90.00,180.00,36.00,OPEN,0
655818.705,1,0,0,1.000,1.000,0.942,-90.00,180.00,40.50,OPEN,1
655818.761,1,0,0,1.000,1.000,0.936,-90.00,180.00,40.50,OPEN,0
655818.804,1,0,0,1.000,1.000,0.935,-90.00,180.00,40.50,OPEN,0
655818.862,1,0,0,1.000,1.000,0.911,-90.00,180.00,45.00,OPEN,1
655818.905,1,0,0,1.000,1.000,0.908,-90.00,180.00,45.00,OPEN,0
655818.958,1,0,0,1.000,1.000,0.968,-90.00,180.00,45.00,OPEN,0
655819.008,1,0,0,1.000,1.000,0.969,-90.00,180.00,49.50,OPEN,1
655819.057,1,0,0,1.000,1.000,0.981,-90.00,180.00,49.50,OPEN,0
655819.108,1,0,0,1.000,1.000,0.995,-90.00,180.00,54.00,OPEN,1
655819.157,1,0,0,1.000,1.000,0.996,-90.00,180.00,54.00,OPEN,0
655819.207,1,0,0,1.000,1.000,0.996,-90.00,180.00,54.00,OPEN,0
655819.257,1,0,0,1.000,1.000,0.994,-90.00,180.00,58.50,OPEN,1
655819.307,1,0,0,1.000,1.000,0.990,-90.00,180.00,58.50,OPEN,0
655819.358,1,0,0,1.000,1.000,0.986,-90.00,180.00,63.00,OPEN,1
655819.408,1,0,0,1.000,1.000,0.987,-90.00,180.00,63.00,OPEN,0
655819.456,1,0,0,1.000,1.000,0.982,-90.00,180.00,63.00,OPEN,0
655819.507,1,0,0,1.000,1.000,0.978,-90.00,180.00,67.50,OPEN,1
655819.554,1,0,0,1.000,1.000,0.983,-90.00,180.00,67.50,OPEN,0
655819.608,1,0,0,1.000,1.000,0.988,-90.00,180.00,72.00,OPEN,1
655819.653,1,0,0,1.000,1.000,0.994,-90.00,180.00,72.00,OPEN,0
655819.708,1,0,0,1.000,1.000,0.994,-90.00,180.00,72.00,OPEN,0
655819.759,1,0,0,1.000,1.000,0.990,-90.00,180.00,76.50,OPEN,1
655819.812,1,0,0,1.000,1.000,0.991,-90.00,180.00,76.50,OPEN,0
655819.859,1,0,0,1.000,1.000,0.989,-90.00,180.00,76.50,OPEN,0
655819.909,1,0,0,1.000,1.000,0.986,-90.00,180.00,81.00,OPEN,1
655819.958,1,0,0,1.000,1.000,0.985,-90.00,180.00,81.00,OPEN,0
655820.010,1,0,0,1.000,1.000,0.981,-90.00,180.00,85.50,OPEN,1
655820.054,1,0,0,1.000,1.000,0.979,-90.00,180.00,85.50,OPEN,0
655820.108,1,0,0,1.000,1.000,0.988,-90.00,180.00,85.50,OPEN,0
655820.158,1,0,0,1.000,1.000,0.987,-90.00,180.00,90.00,OPEN,1
655820.208,1,0,0,1.000,1.000,0.987,-90.00,180.00,90.00,OPEN,0
655820.258,1,0,0,1.000,1.000,0.987,-90.00,180.00,94.50,OPEN,1
655820.303,1,0,0,1.000,1.000,0.990,-90.00,180.00,94.50,OPEN,0
655820.358,1,0,0,1.000,1.000,0.994,-90.00,180.00,99.00,OPEN,1
655820.409,1,0,0,1.000,1.000,0.989,-90.00,180.00,99.00,OPEN,0
655820.458,1,0,0,1.000,1.000,0.987,-90.00,180.00,99.00,OPEN,0
655820.507,1,0,0,1.000,1.000,0.987,-90.00,180.00,103.50,OPEN,1
655820.553,1,0,0,1.000,1.000,0.990,-90.00,180.00,103.50,OPEN,0
655820.604,1,0,0,1.000,1.000,0.981,-90.00,180.00,103.50,OPEN,0
655820.654,1,0,0,1.000,1.000,0.979,-90.00,180.00,108.00,OPEN,1
655820.703,1,0,0,1.000,1.000,0.985,-90.00,180.00,108.00,OPEN,0
655820.753,1,0,0,1.000,1.000,1.000,-90.00,180.00,108.00,OPEN,0
655820.805,1,0,0,1.000,1.000,1.000,-90.00,180.00,112.50,OPEN,1
655820.854,1,0,0,1.000,1.000,1.000,-90.00,180.00,112.50,OPEN,0
655820.904,1,0,0,1.000,1.000,1.000,-90.00,180.00,112.50,OPEN,0
655820.953,1,0,0,1.000,1.000,1.000,-90.00,180.00,117.00,OPEN,1
655821.003,1,0,0,1.000,1.000,1.000,-90.00,180.00,117.00,OPEN,0
655821.055,1,0,0,1.000,1.000,1.000,-90.00,180.00,121.50,OPEN,1
655821.103,1,1,1,1.000,1.000,1.000,0.00,90.00,121.50,OPEN,0
655821.154,1,1,1,1.000,1.000,1.000,0.00,90.00,121.50,OPEN,0
655821.207,1,1,1,1.000,1.000,1.000,0.00,90.00,126.00,OPEN,1
655821.257,1,1,1,1.000,1.000,1.000,0.00,90.00,126.00,OPEN,0
655821.303,1,1,1,1.000,1.000,1.000,0.00,90.00,126.00,OPEN,0
655821.353,1,1,1,1.000,1.000,1.000,0.00,90.00,130.50,OPEN,1
655821.404,1,1,1,1.000,1.000,1.000,0.00,90.00,130.50,OPEN,0
655821.453,1,1,1,1.000,1.000,1.000,0.00,90.00,135.00,OPEN,1
655821.503,1,1,1,1.000,1.000,1.000,0.00,90.00,135.00,OPEN,0
655821.553,1,1,1,1.000,1.000,1.000,0.00,90.00,135.00,OPEN,0
655821.603,1,1,1,1.000,1.000,1.000,0.00,90.00,139.50,OPEN,1
655821.655,1,1,1,1.000,1.000,0.924,0.00,90.00,139.50,OPEN,0
655821.704,1,1,1,1.000,1.000,0.700,0.00,90.00,144.00,OPEN,1
655821.753,1,1,1,1.000,1.000,0.790,0.00,90.00,144.00,OPEN,0
655821.805,1,1,1,1.000,1.000,1.000,0.00,90.00,148.50,OPEN,1
655821.853,1,1,1,1.000,1.000,1.000,0.00,90.00,148.50,OPEN,0
655821.903,1,1,1,1.000,1.000,1.000,0.00,90.00,148.50,OPEN,0
655821.953,1,1,1,0.773,1.000,1.000,0.00,90.00,153.00,OPEN,1
655822.003,1,1,1,1.000,1.000,1.000,0.00,90.00,153.00,OPEN,0
655822.059,1,0,1,1.000,1.000,1.000,0.00,180.00,157.50,OPEN,1
655822.107,1,0,1,1.000,1.000,1.000,0.00,180.00,157.50,OPEN,0
655822.154,1,0,0,1.000,1.000,1.000,-90.00,180.00,157.50,OPEN,0
655822.209,1,0,0,1.000,1.000,1.000,-90.00,180.00,162.00,OPEN,1
655822.253,1,0,0,1.000,1.000,1.000,-90.00,180.00,162.00,OPEN,0
655822.303,1,0,0,1.000,0.522,0.982,-90.00,180.00,162.00,OPEN,0
655822.353,0,0,0,1.000,0.998,0.732,-90.00,180.00,162.00,OPEN,0
655822.403,0,0,0,1.000,1.000,0.598,-90.00,180.00,162.00,OPEN,0
655822.454,0,0,0,1.000,1.000,0.546,-90.00,180.00,162.00,OPEN,0
655822.507,0,0,0,1.000,1.000,0.600,-90.00,180.00,162.00,OPEN,0
655822.557,0,0,0,1.000,1.000,0.996,-90.00,180.00,162.00,OPEN,0
655822.607,0,0,0,1.000,1.000,0.976,-90.00,180.00,162.00,OPEN,0
655822.657,0,0,0,1.000,1.000,0.959,-90.00,180.00,162.00,OPEN,0
655822.704,0,0,0,1.000,1.000,0.984,-90.00,180.00,162.00,OPEN,0
655822.754,0,0,0,1.000,0.992,0.988,-90.00,180.00,162.00,OPEN,0
655822.805,0,0,0,1.000,0.973,0.978,-90.00,180.00,162.00,OPEN,0
655822.860,0,0,0,1.000,0.743,0.999,-90.00,180.00,162.00,OPEN,0
655822.910,0,0,0,1.000,1.000,1.000,-90.00,180.00,162.00,OPEN,0
655822.953,0,0,0,1.000,1.000,0.995,-90.00,180.00,162.00,OPEN,0
655823.004,0,0,0,1.000,0.810,0.803,-90.00,180.00,162.00,OPEN,0
655823.054,0,0,0,1.000,0.977,0.574,-90.00,180.00,162.00,OPEN,0
655823.107,0,0,0,1.000,0.949,0.637,-90.00,180.00,162.00,OPEN,0
655823.154,0,0,1,1.000,0.778,0.794,0.00,180.00,162.00,OPEN,1
655823.203,0,0,1,1.000,0.995,0.992,0.00,180.00,162.00,OPEN,0
655823.259,0,0,1,1.000,1.000,1.000,0.00,180.00,162.00,OPEN,0
655823.309,0,0,1,1.000,1.000,1.000,0.00,180.00,162.00,OPEN,0
655823.356,0,0,1,1.000,1.000,1.000,0.00,180.00,162.00,OPEN,0
655823.407,0,0,1,1.000,1.000,1.000,0.00,180.00,162.00,OPEN,0
655823.453,0,0,0,1.000,1.000,1.000,-90.00,180.00,162.00,OPEN,1
655823.504,0,0,0,1.000,1.000,1.000,-90.00,180.00,162.00,OPEN,0
655823.553,0,0,0,1.000,1.000,1.000,-90.00,180.00,162.00,OPEN,0
655823.607,0,0,0,1.000,1.000,0.956,-90.00,180.00,162.00,OPEN,0
655823.658,0,0,0,1.000,1.000,0.562,-90.00,180.00,162.00,OPEN,0
655823.706,0,0,0,1.000,1.000,1.000,-90.00,180.00,162.00,OPEN,0
655823.758,0,0,0,1.000,1.000,1.000,-90.00,180.00,162.00,OPEN,0
655823.803,0,0,0,1.000,1.000,1.000,-90.00,180.00,162.00,OPEN,0
655823.853,0,0,0,1.000,1.000,1.000,-90.00,180.00,162.00,OPEN,0
655823.902,0,0,0,1.000,1.000,1.000,-90.00,180.00,162.00,OPEN,0
655823.953,0,0,0,1.000,1.000,1.000,-90.00,180.00,162.00,OPEN,0
655824.009,0,0,0,1.000,1.000,1.000,-90.00,180.00,162.00,OPEN,0
655824.058,0,0,0,1.000,1.000,1.000,-90.00,180.00,162.00,OPEN,0
655824.107,0,0,0,1.000,1.000,1.000,-90.00,180.00,162.00,OPEN,0
655824.153,0,0,0,1.000,1.000,1.000,-90.00,180.00,162.00,OPEN,0
655824.209,0,0,0,1.000,1.000,1.000,-90.00,180.00,162.00,OPEN,0
655824.257,0,0,0,1.000,1.000,1.000,-90.00,180.00,162.00,OPEN,0
655824.303,0,0,0,1.000,1.000,1.000,-90.00,180.00,162.00,OPEN,0
655824.353,0,0,0,1.000,1.000,1.000,-90.00,180.00,162.00,OPEN,0
655824.404,0,0,0,1.000,1.000,1.000,-90.00,180.00,162.00,OPEN,0
655824.453,0,0,0,1.000,1.000,1.000,-90.00,180.00,162.00,OPEN,0
655824.504,0,0,0,1.000,1.000,1.000,-90.00,180.00,162.00,OPEN,0
655824.558,0,1,1,1.000,0.999,1.000,0.00,90.00,162.00,OPEN,1
655824.603,0,1,1,1.000,0.847,0.986,0.00,90.00,162.00,OPEN,0
655824.655,0,1,1,1.000,1.000,0.759,0.00,90.00,162.00,OPEN,0
655824.707,0,1,1,1.000,1.000,0.965,0.00,90.00,162.00,OPEN,0
655824.759,0,1,1,1.000,1.000,0.994,0.00,90.00,162.00,OPEN,0
655824.804,0,1,1,1.000,1.000,0.994,0.00,90.00,162.00,OPEN,0
655824.858,0,1,1,1.000,1.000,0.993,0.00,90.00,162.00,OPEN,0
655824.908,0,1,1,1.000,1.000,0.991,0.00,90.00,162.00,OPEN,0
655824.953,0,1,1,1.000,1.000,0.987,0.00,90.00,162.00,OPEN,0
655825.004,0,0,1,1.000,1.000,0.991,0.00,180.00,162.00,OPEN,1
655825.053,0,0,1,1.000,1.000,0.995,0.00,180.00,162.00,OPEN,0
655825.107,0,0,1,1.000,1.000,0.993,0.00,180.00,162.00,OPEN,0
655825.154,0,0,1,1.000,1.000,0.985,0.00,180.00,162.00,OPEN,0
655825.205,0,0,1,1.000,1.000,0.981,0.00,180.00,162.00,OPEN,0
655825.257,0,0,1,1.000,1.000,0.991,0.00,180.00,162.00,OPEN,0
655825.307,0,0,1,1.000,1.000,0.989,0.00,180.00,162.00,OPEN,0
655825.356,0,0,1,1.000,1.000,0.980,0.00,180.00,162.00,OPEN,0
655825.408,0,0,1,1.000,1.000,0.959,0.00,180.00,162.00,OPEN,0
655825.457,0,0,1,1.000,1.000,0.587,0.00,180.00,162.00,OPEN,0
655825.507,0,0,1,1.000,1.000,0.505,0.00,180.00,162.00,OPEN,0
655825.553,0,0,1,1.000,1.000,0.514,0.00,180.00,162.00,OPEN,0
655825.607,0,0,1,1.000,1.000,0.504,0.00,180.00,162.00,OPEN,0
655825.654,0,0,1,1.000,1.000,0.527,0.00,180.00,162.00,OPEN,0
655825.705,0,0,1,1.000,1.000,0.761,0.00,180.00,162.00,OPEN,0
655825.753,0,0,1,1.000,1.000,0.892,0.00,180.00,162.00,OPEN,0
655825.804,0,0,1,1.000,1.000,0.929,0.00,180.00,162.00,OPEN,0
655825.853,0,0,1,1.000,1.000,0.940,0.00,180.00,162.00,OPEN,0
655825.904,0,0,1,1.000,1.000,0.913,0.00,180.00,162.00,OPEN,0
655825.953,0,0,1,1.000,1.000,0.912,0.00,180.00,162.00,OPEN,0
655826.008,0,0,1,1.000,1.000,0.848,0.00,180.00,162.00,OPEN,0
655826.053,0,0,1,1.000,1.000,0.874,0.00,180.00,162.00,OPEN,0
655826.103,0,0,1,1.000,1.000,0.876,0.00,180.00,162.00,OPEN,0
655826.154,0,0,1,1.000,1.000,0.909,0.00,180.00,162.00,OPEN,0
655826.204,0,0,1,1.000,1.000,0.925,0.00,180.00,162.00,OPEN,0
655826.254,0,0,1,1.000,1.000,0.970,0.00,180.00,162.00,OPEN,0
655826.303,0,0,1,1.000,1.000,0.980,0.00,180.00,162.00,OPEN,0
655826.358,0,0,1,1.000,1.000,0.982,0.00,180.00,162.00,OPEN,0
655826.405,0,0,1,1.000,1.000,0.990,0.00,180.00,162.00,OPEN,0
655826.454,0,0,1,1.000,1.000,0.993,0.00,180.00,162.00,OPEN,0
655826.503,0,0,1,1.000,1.000,0.991,0.00,180.00,162.00,OPEN,0
655826.553,0,0,1,1.000,1.000,0.993,0.00,180.00,162.00,OPEN,0
655826.603,0,0,1,1.000,1.000,0.995,0.00,180.00,162.00,OPEN,0
655826.657,0,0,1,1.000,1.000,0.995,0.00,180.00,162.00,OPEN,0
655826.707,0,0,1,1.000,1.000,0.996,0.00,180.00,162.00,OPEN,0
655826.758,0,0,1,1.000,1.000,0.997,0.00,180.00,162.00,OPEN,0
655826.808,0,0,1,1.000,1.000,0.988,0.00,180.00,162.00,OPEN,0
655826.857,0,0,1,1.000,1.000,0.949,0.00,180.00,162.00,OPEN,0
655826.907,0,0,1,1.000,1.000,0.769,0.00,180.00,162.00,OPEN,0
655826.957,0,0,1,1.000,1.000,0.682,0.00,180.00,162.00,OPEN,0
655827.008,0,0,1,1.000,1.000,0.598,0.00,180.00,162.00,OPEN,0
655827.057,0,0,1,1.000,1.000,0.619,0.00,180.00,162.00,OPEN,0
655827.106,0,0,1,1.000,1.000,0.518,0.00,180.00,162.00,OPEN,0
655827.158,0,0,1,1.000,1.000,0.527,0.00,180.00,162.00,OPEN,0
655827.208,0,0,1,1.000,1.000,0.560,0.00,180.00,162.00,OPEN,0
655827.260,0,0,1,1.000,1.000,0.534,0.00,180.00,162.00,OPEN,0
655827.304,0,0,1,1.000,1.000,0.687,0.00,180.00,162.00,OPEN,0
655827.357,0,0,1,1.000,1.000,0.702,0.00,180.00,162.00,OPEN,0
655827.403,0,0,1,1.000,1.000,0.818,0.00,180.00,162.00,OPEN,0
655827.459,0,0,1,1.000,1.000,0.739,0.00,180.00,162.00,OPEN,0
655827.503,0,0,1,1.000,1.000,0.771,0.00,180.00,162.00,OPEN,0
655827.556,0,0,1,1.000,1.000,0.750,0.00,180.00,162.00,OPEN,0
655827.608,0,0,1,1.000,1.000,0.721,0.00,180.00,162.00,OPEN,0
655827.655,0,0,1,1.000,1.000,0.617,0.00,180.00,162.00,OPEN,0
655827.703,0,0,1,1.000,1.000,0.580,0.00,180.00,162.00,OPEN,0
655827.757,0,0,1,1.000,1.000,0.666,0.00,180.00,162.00,OPEN,0
655827.809,0,0,1,1.000,1.000,0.615,0.00,180.00,162.00,OPEN,0
655827.857,0,0,1,1.000,1.000,0.527,0.00,180.00,162.00,OPEN,0
655827.908,0,0,1,1.000,1.000,0.607,0.00,180.00,162.00,OPEN,0
655827.957,0,0,1,1.000,1.000,0.608,0.00,180.00,162.00,OPEN,0
655828.008,0,0,1,1.000,1.000,0.708,0.00,180.00,162.00,OPEN,0
655828.056,0,0,1,1.000,1.000,0.855,0.00,180.00,162.00,OPEN,0
655828.113,0,0,1,1.000,1.000,0.816,0.00,180.00,162.00,OPEN,0
655828.165,0,0,1,1.000,1.000,0.858,0.00,180.00,162.00,OPEN,0
655828.207,0,0,1,1.000,1.000,0.850,0.00,180.00,162.00,OPEN,0
655828.259,0,0,1,1.000,1.000,0.653,0.00,180.00,162.00,OPEN,0
655828.308,0,0,1,1.000,1.000,0.612,0.00,180.00,162.00,OPEN,0
655828.358,0,0,1,1.000,1.000,0.638,0.00,180.00,162.00,OPEN,0
655828.408,0,0,1,1.000,1.000,0.707,0.00,180.00,162.00,OPEN,0
655828.459,0,0,1,1.000,1.000,0.766,0.00,180.00,162.00,OPEN,0
655828.507,0,0,1,1.000,1.000,0.682,0.00,180.00,162.00,OPEN,0
655828.554,0,0,1,1.000,1.000,0.505,0.00,180.00,162.00,OPEN,0
655828.607,0,0,1,1.000,1.000,0.640,0.00,180.00,162.00,OPEN,0
655828.659,0,0,1,1.000,1.000,0.733,0.00,180.00,162.00,OPEN,0
655828.709,0,0,1,1.000,1.000,1.000,0.00,180.00,162.00,OPEN,0
655828.760,0,0,1,1.000,1.000,1.000,0.00,180.00,162.00,OPEN,0
655828.810,0,0,1,1.000,1.000,1.000,0.00,180.00,162.00,OPEN,0
655828.859,0,0,1,1.000,1.000,1.000,0.00,180.00,162.00,OPEN,0
655828.908,0,0,1,1.000,1.000,1.000,0.00,180.00,162.00,OPEN,0
655828.957,0,0,0,1.000,1.000,1.000,-90.00,180.00,162.00,OPEN,1
655829.003,0,0,0,1.000,1.000,1.000,-90.00,180.00,162.00,OPEN,0
655829.058,0,0,0,1.000,1.000,1.000,-90.00,180.00,162.00,OPEN,0
655829.108,0,0,0,1.000,1.000,1.000,-90.00,180.00,162.00,OPEN,0
655829.155,0,0,0,1.000,1.000,1.000,-90.00,180.00,162.00,OPEN,0
655829.204,0,0,0,0.984,1.000,1.000,-90.00,180.00,162.00,OPEN,0
655829.257,0,0,0,0.985,1.000,1.000,-90.00,180.00,162.00,OPEN,0
655829.311,0,0,0,0.968,1.000,1.000,-90.00,180.00,162.00,OPEN,0
655829.359,0,0,0,0.966,1.000,1.000,-90.00,180.00,162.00,OPEN,0
655829.408,0,0,0,0.962,1.000,1.000,-90.00,180.00,162.00,OPEN,0
655829.460,0,0,0,0.957,1.000,1.000,-90.00,180.00,162.00,OPEN,0
655829.508,0,0,0,0.937,1.000,1.000,-90.00,180.00,162.00,OPEN,0
655829.558,0,1,1,0.984,1.000,1.000,0.00,90.00,162.00,OPEN,1
655829.608,0,1,1,0.999,1.000,1.000,0.00,90.00,162.00,OPEN,0
655829.653,0,1,1,1.000,1.000,1.000,0.00,90.00,162.00,OPEN,0
655829.703,0,1,1,1.000,0.985,0.999,0.00,90.00,162.00,OPEN,0
655829.758,0,1,1,1.000,1.000,1.000,0.00,90.00,162.00,OPEN,0
655829.809,0,1,1,1.000,1.000,1.000,0.00,90.00,162.00,OPEN,0
655829.858,0,1,1,1.000,0.997,1.000,0.00,90.00,162.00,OPEN,0
655829.908,2,1,1,1.000,1.000,1.000,0.00,90.00,157.50,OPEN,1
655829.958,2,1,1,1.000,1.000,1.000,0.00,90.00,157.50,OPEN,0
655830.004,2,1,1,1.000,1.000,1.000,0.00,90.00,157.50,OPEN,0
655830.058,2,1,1,1.000,1.000,1.000,0.00,90.00,153.00,OPEN,1
655830.108,2,1,1,1.000,0.996,0.988,0.00,90.00,153.00,OPEN,0
655830.153,2,1,1,1.000,0.999,0.980,0.00,90.00,153.00,OPEN,0
655830.207,2,1,1,1.000,0.999,0.977,0.00,90.00,148.50,OPEN,1
655830.257,2,1,1,1.000,0.998,0.962,0.00,90.00,148.50,OPEN,0
655830.312,2,1,1,1.000,0.958,0.800,0.00,90.00,144.00,OPEN,1
655830.357,2,1,1,1.000,1.000,0.998,0.00,90.00,144.00,OPEN,0
655830.407,2,1,1,1.000,1.000,1.000,0.00,90.00,144.00,OPEN,0
655830.458,2,1,1,1.000,1.000,1.000,0.00,90.00,139.50,OPEN,1
655830.508,2,1,1,1.000,1.000,1.000,0.00,90.00,139.50,OPEN,0
655830.557,2,1,1,1.000,1.000,1.000,0.00,90.00,139.50,OPEN,0
655830.607,2,1,1,1.000,1.000,1.000,0.00,90.00,135.00,OPEN,1
655830.657,2,1,1,1.000,1.000,1.000,0.00,90.00,135.00,OPEN,0
655830.708,2,0,0,1.000,1.000,1.000,-90.00,180.00,130.50,OPEN,1
655830.757,2,0,0,1.000,1.000,1.000,-90.00,180.00,130.50,OPEN,0
655830.809,2,0,0,1.000,1.000,1.000,-90.00,180.00,126.00,OPEN,1
655830.857,2,0,0,1.000,1.000,1.000,-90.00,180.00,126.00,OPEN,0
655830.903,2,0,0,1.000,1.000,1.000,-90.00,180.00,126.00,OPEN,0
655830.958,2,0,0,1.000,1.000,1.000,-90.00,180.00,121.50,OPEN,1
655831.007,2,0,0,1.000,1.000,1.000,-90.00,180.00,121.50,OPEN,0
655831.057,2,0,0,1.000,1.000,1.000,-90.00,180.00,121.50,OPEN,0
655831.107,2,0,0,1.000,1.000,1.000,-90.00,180.00,117.00,OPEN,1
655831.153,2,0,0,1.000,1.000,1.000,-90.00,180.00,117.00,OPEN,0
655831.205,2,0,0,1.000,1.000,1.000,-90.00,180.00,117.00,OPEN,0
655831.255,2,0,0,1.000,1.000,1.000,-90.00,180.00,112.50,OPEN,1
655831.308,2,0,0,1.000,1.000,1.000,-90.00,180.00,112.50,OPEN,0
655831.358,2,0,0,1.000,1.000,1.000,-90.00,180.00,108.00,OPEN,1
655831.407,2,0,0,1.000,1.000,1.000,-90.00,180.00,108.00,OPEN,0
655831.458,2,0,0,1.000,1.000,1.000,-90.00,180.00,108.00,OPEN,0
655831.508,2,0,0,1.000,1.000,1.000,-90.00,180.00,103.50,OPEN,1
655831.557,2,0,0,1.000,1.000,1.000,-90.00,180.00,103.50,OPEN,0
655831.608,2,0,0,1.000,1.000,1.000,-90.00,180.00,103.50,OPEN,0
655831.658,2,0,0,1.000,1.000,1.000,-90.00,180.00,99.00,OPEN,1
655831.703,2,0,0,1.000,1.000,1.000,-90.00,180.00,99.00,OPEN,0
655831.758,2,0,0,1.000,1.000,1.000,-90.00,180.00,99.00,OPEN,0
655831.808,2,0,0,1.000,1.000,1.000,-90.00,180.00,94.50,OPEN,1
655831.857,2,0,0,1.000,1.000,1.000,-90.00,180.00,94.50,OPEN,0
655831.905,2,0,0,1.000,1.000,1.000,-90.00,180.00,94.50,OPEN,0
655831.954,2,0,0,1.000,1.000,1.000,-90.00,180.00,90.00,OPEN,1
655832.007,2,0,0,1.000,1.000,1.000,-90.00,180.00,90.00,OPEN,0
655832.058,2,0,0,1.000,1.000,1.000,-90.00,180.00,85.50,OPEN,1
655832.108,2,0,0,1.000,1.000,1.000,-90.00,180.00,85.50,OPEN,0
655832.158,2,0,0,1.000,1.000,1.000,-90.00,180.00,81.00,OPEN,1
655832.208,2,0,0,1.000,1.000,1.000,-90.00,180.00,81.00,OPEN,0
655832.257,2,0,0,1.000,1.000,1.000,-90.00,180.00,81.00,OPEN,0
655832.307,2,0,0,1.000,1.000,1.000,-90.00,180.00,76.50,OPEN,1
655832.358,2,0,0,1.000,1.000,1.000,-90.00,180.00,76.50,OPEN,0
655832.408,2,0,0,1.000,1.000,1.000,-90.00,180.00,72.00,OPEN,1
655832.457,2,0,0,1.000,1.000,1.000,-90.00,180.00,72.00,OPEN,0
655832.507,2,0,0,1.000,1.000,1.000,-90.00,180.00,72.00,OPEN,0
655832.557,2,0,0,1.000,1.000,1.000,-90.00,180.00,67.50,OPEN,1
655832.608,2,0,0,1.000,1.000,1.000,-90.00,180.00,67.50,OPEN,0
655832.660,2,0,0,1.000,1.000,1.000,-90.00,180.00,63.00,OPEN,1
655832.706,2,0,0,1.000,1.000,1.000,-90.00,180.00,63.00,OPEN,0
655832.758,2,0,0,1.000,1.000,1.000,-90.00,180.00,63.00,OPEN,0
655832.808,2,0,0,1.000,1.000,1.000,-90.00,180.00,58.50,OPEN,1
655832.858,2,0,0,1.000,1.000,1.000,-90.00,180.00,58.50,OPEN,0
655832.908,2,0,0,1.000,1.000,1.000,-90.00,180.00,54.00,OPEN,1
655832.954,2,0,0,1.000,1.000,1.000,-90.00,180.00,54.00,OPEN,0
655833.007,2,0,0,1.000,1.000,1.000,-90.00,180.00,54.00,OPEN,0
655833.057,2,0,0,1.000,1.000,1.000,-90.00,180.00,49.50,OPEN,1
655833.108,2,0,0,1.000,1.000,1.000,-90.00,180.00,49.50,OPEN,0
655833.154,2,0,0,1.000,1.000,1.000,-90.00,180.00,49.50,OPEN,0
655833.207,2,0,0,1.000,1.000,1.000,-90.00,180.00,45.00,OPEN,1
655833.258,2,0,0,1.000,1.000,1.000,-90.00,180.00,45.00,OPEN,0
655833.304,2,0,0,1.000,1.000,1.000,-90.00,180.00,45.00,OPEN,0
655833.357,2,0,0,1.000,1.000,1.000,-90.00,180.00,40.50,OPEN,1
655833.408,2,0,0,1.000,1.000,1.000,-90.00,180.00,40.50,OPEN,0
655833.458,2,0,0,1.000,1.000,1.000,-90.00,180.00,36.00,OPEN,1
655833.507,2,0,0,1.000,1.000,1.000,-90.00,180.00,36.00,OPEN,0
655833.558,2,0,0,1.000,1.000,1.000,-90.00,180.00,31.50,OPEN,1
655833.608,2,0,0,1.000,1.000,1.000,-90.00,180.00,31.50,OPEN,0
655833.658,2,0,0,1.000,1.000,1.000,-90.00,180.00,31.50,OPEN,0
655833.708,2,0,0,1.000,1.000,1.000,-90.00,180.00,27.00,OPEN,1
655833.757,2,0,0,1.000,1.000,1.000,-90.00,180.00,27.00,OPEN,0
655833.808,2,0,0,1.000,1.000,1.000,-90.00,180.00,22.50,OPEN,1
655833.856,2,0,0,1.000,1.000,1.000,-90.00,180.00,22.50,OPEN,0
655833.910,2,0,0,1.000,1.000,1.000,-90.00,180.00,18.00,OPEN,1
655833.953,2,0,0,1.000,1.000,1.000,-90.00,180.00,18.00,OPEN,0
655834.003,2,0,0,1.000,1.000,1.000,-90.00,180.00,18.00,OPEN,0
655834.057,2,0,0,1.000,1.000,1.000,-90.00,180.00,13.50,OPEN,1
655834.104,2,0,0,1.000,1.000,1.000,-90.00,180.00,13.50,OPEN,0
655834.154,2,0,0,1.000,1.000,1.000,-90.00,180.00,13.50,OPEN,0
655834.207,2,0,0,1.000,1.000,1.000,-90.00,180.00,9.00,OPEN,1
655834.253,2,0,0,1.000,1.000,1.000,-90.00,180.00,9.00,OPEN,0
655834.304,2,0,0,1.000,1.000,1.000,-90.00,180.00,9.00,OPEN,0
655834.357,2,0,0,1.000,1.000,1.000,-90.00,180.00,4.50,OPEN,1
655834.408,2,0,0,1.000,1.000,1.000,-90.00,180.00,4.50,OPEN,0
655834.456,2,0,0,1.000,1.000,1.000,-90.00,180.00,4.50,OPEN,0
655834.503,2,0,0,1.000,1.000,1.000,-90.00,180.00,0.00,OPEN,1
655834.554,2,0,0,1.000,1.000,1.000,-90.00,180.00,0.00,OPEN,0
655834.612,2,0,0,1.000,1.000,1.000,-90.00,180.00,-4.50,OPEN,1
655834.659,2,0,0,1.000,1.000,1.000,-90.00,180.00,-4.50,OPEN,0
655834.708,2,0,0,1.000,1.000,1.000,-90.00,180.00,-4.50,OPEN,0
655834.757,2,0,0,1.000,1.000,1.000,-90.00,180.00,-9.00,OPEN,1
655834.803,2,0,0,1.000,1.000,1.000,-90.00,180.00,-9.00,OPEN,0
655834.858,2,0,0,1.000,1.000,1.000,-90.00,180.00,-13.50,OPEN,1
655834.908,2,0,0,1.000,1.000,1.000,-90.00,180.00,-13.50,OPEN,0
655834.957,2,0,0,1.000,1.000,1.000,-90.00,180.00,-13.50,OPEN,0
655835.008,2,0,0,1.000,1.000,1.000,-90.00,180.00,-18.00,OPEN,1
655835.058,2,0,0,1.000,1.000,1.000,-90.00,180.00,-18.00,OPEN,0
655835.103,2,0,0,1.000,1.000,1.000,-90.00,180.00,-18.00,OPEN,0
655835.155,2,0,0,1.000,1.000,1.000,-90.00,180.00,-22.50,OPEN,1
655835.208,2,0,0,1.000,1.000,1.000,-90.00,180.00,-22.50,OPEN,0
655835.253,2,0,0,1.000,1.000,1.000,-90.00,180.00,-22.50,OPEN,0
655835.303,2,0,0,1.000,1.000,1.000,-90.00,180.00,-27.00,OPEN,1
655835.354,2,0,0,1.000,1.000,1.000,-90.00,180.00,-27.00,OPEN,0
655835.409,2,0,0,1.000,1.000,1.000,-90.00,180.00,-31.50,OPEN,1
655835.457,2,0,0,0.999,1.000,1.000,-90.00,180.00,-31.50,OPEN,0
655835.504,2,0,0,0.998,1.000,1.000,-90.00,180.00,-31.50,OPEN,0
655835.557,2,0,0,0.994,1.000,1.000,-90.00,180.00,-36.00,OPEN,1
655835.603,2,0,0,0.963,1.000,1.000,-90.00,180.00,-36.00,OPEN,0
655835.653,2,0,0,0.904,1.000,1.000,-90.00,180.00,-36.00,OPEN,0
655835.703,2,0,0,0.723,1.000,1.000,-90.00,180.00,-40.50,OPEN,1
655835.753,2,0,0,0.684,1.000,1.000,-90.00,180.00,-40.50,OPEN,0
655835.805,2,0,0,0.927,1.000,1.000,-90.00,180.00,-45.00,OPEN,1
655835.853,2,0,0,0.966,1.000,1.000,-90.00,180.00,-45.00,OPEN,0
655835.903,2,0,0,0.999,1.000,1.000,-90.00,180.00,-45.00,OPEN,0
655835.957,2,0,0,1.000,1.000,1.000,-90.00,180.00,-49.50,OPEN,1
655836.007,2,0,0,1.000,1.000,1.000,-90.00,180.00,-49.50,OPEN,0
655836.057,2,0,0,1.000,1.000,1.000,-90.00,180.00,-54.00,OPEN,1
655836.107,2,0,0,1.000,1.000,1.000,-90.00,180.00,-54.00,OPEN,0
655836.156,0,0,0,1.000,1.000,1.000,-90.00,180.00,-54.00,OPEN,0
655836.204,0,0,0,1.000,1.000,1.000,-90.00,180.00,-54.00,OPEN,0
655836.255,0,0,0,1.000,1.000,1.000,-90.00,180.00,-54.00,OPEN,0
655836.307,0,0,0,1.000,1.000,1.000,-90.00,180.00,-54.00,OPEN,0
655836.355,0,0,0,1.000,1.000,1.000,-90.00,180.00,-54.00,OPEN,0
655836.404,0,0,0,1.000,1.000,1.000,-90.00,180.00,-54.00,OPEN,0
655836.454,0,0,0,1.000,1.000,1.000,-90.00,180.00,-54.00,OPEN,0
655836.503,0,0,0,1.000,1.000,1.000,-90.00,180.00,-54.00,OPEN,0
655836.557,0,0,0,1.000,1.000,1.000,-90.00,180.00,-54.00,OPEN,0
655836.608,0,0,0,1.000,1.000,1.000,-90.00,180.00,-54.00,OPEN,0
655836.659,0,0,0,1.000,1.000,1.000,-90.00,180.00,-54.00,OPEN,0
655836.707,0,0,0,1.000,1.000,1.000,-90.00,180.00,-54.00,OPEN,0
655836.758,0,0,0,1.000,1.000,1.000,-90.00,180.00,-54.00,OPEN,0
655836.808,0,0,0,1.000,1.000,1.000,-90.00,180.00,-54.00,OPEN,0
655836.854,0,0,0,1.000,1.000,1.000,-90.00,180.00,-54.00,OPEN,0
655836.907,0,0,0,1.000,1.000,1.000,-90.00,180.00,-54.00,OPEN,0
655836.954,0,0,0,1.000,1.000,1.000,-90.00,180.00,-54.00,OPEN,0
655837.007,0,0,0,1.000,1.000,1.000,-90.00,180.00,-54.00,OPEN,0
655837.053,0,0,0,1.000,1.000,1.000,-90.00,180.00,-54.00,OPEN,0
655837.107,0,0,0,1.000,1.000,1.000,-90.00,180.00,-54.00,OPEN,0
655837.156,0,0,0,1.000,1.000,1.000,-90.00,180.00,-54.00,OPEN,0
655837.208,0,0,0,1.000,1.000,1.000,-90.00,180.00,-54.00,OPEN,0
655837.259,0,0,0,1.000,1.000,1.000,-90.00,180.00,-54.00,OPEN,0
655837.304,0,0,0,1.000,1.000,1.000,-90.00,180.00,-54.00,OPEN,0
655837.358,0,0,0,1.000,1.000,1.000,-90.00,180.00,-54.00,OPEN,0
655837.407,0,0,0,1.000,1.000,1.000,-90.00,180.00,-54.00,OPEN,0
655837.457,0,0,0,1.000,1.000,1.000,-90.00,180.00,-54.00,OPEN,0
655837.507,0,0,0,1.000,1.000,1.000,-90.00,180.00,-54.00,OPEN,0
655837.557,0,0,0,1.000,1.000,1.000,-90.00,180.00,-54.00,OPEN,0
655837.608,0,0,0,1.000,1.000,1.000,-90.00,180.00,-54.00,OPEN,0
655837.658,0,0,0,1.000,1.000,1.000,-90.00,180.00,-54.00,OPEN,0
655837.707,0,0,0,1.000,1.000,1.000,-90.00,180.00,-54.00,OPEN,0
655837.754,0,0,0,1.000,1.000,1.000,-90.00,180.00,-54.00,OPEN,0
655837.808,0,0,0,1.000,1.000,1.000,-90.00,180.00,-54.00,OPEN,0
655837.859,0,0,0,1.000,1.000,1.000,-90.00,180.00,-54.00,OPEN,0
655837.907,0,0,0,1.000,1.000,1.000,-90.00,180.00,-54.00,OPEN,0
655837.953,0,0,0,1.000,1.000,1.000,-90.00,180.00,-54.00,OPEN,0
655838.004,0,0,0,1.000,1.000,1.000,-90.00,180.00,-54.00,OPEN,0
655838.057,0,0,0,1.000,1.000,1.000,-90.00,180.00,-54.00,OPEN,0
655838.108,0,0,0,1.000,1.000,1.000,-90.00,180.00,-54.00,OPEN,0
655838.158,0,0,0,1.000,1.000,1.000,-90.00,180.00,-54.00,OPEN,0
655838.205,0,0,0,1.000,1.000,1.000,-90.00,180.00,-54.00,OPEN,0
655838.253,0,0,0,1.000,1.000,1.000,-90.00,180.00,-54.00,OPEN,0
655838.304,0,0,0,1.000,1.000,1.000,-90.00,180.00,-54.00,OPEN,0
655838.358,0,0,0,1.000,1.000,1.000,-90.00,180.00,-54.00,OPEN,0
655838.408,0,0,0,1.000,1.000,1.000,-90.00,180.00,-54.00,OPEN,0
655838.457,0,0,0,1.000,1.000,1.000,-90.00,180.00,-54.00,OPEN,0
655838.507,0,0,0,1.000,1.000,1.000,-90.00,180.00,-54.00,OPEN,0
655838.554,0,0,0,1.000,1.000,1.000,-90.00,180.00,-54.00,OPEN,0
655838.607,0,0,0,1.000,1.000,1.000,-90.00,180.00,-54.00,OPEN,0
655838.657,0,0,0,1.000,1.000,1.000,-90.00,180.00,-54.00,OPEN,0
655838.704,0,0,0,1.000,1.000,1.000,-90.00,180.00,-54.00,OPEN,0
655838.753,0,0,0,1.000,1.000,1.000,-90.00,180.00,-54.00,OPEN,0
655838.804,0,0,0,1.000,1.000,1.000,-90.00,180.00,-54.00,OPEN,0
655838.857,0,0,0,1.000,1.000,1.000,-90.00,180.00,-54.00,OPEN,0
655838.907,0,0,0,1.000,1.000,1.000,-90.00,180.00,-54.00,OPEN,0
655838.954,0,0,0,1.000,1.000,1.000,-90.00,180.00,-54.00,OPEN,0
655839.003,0,0,0,1.000,1.000,1.000,-90.00,180.00,-54.00,OPEN,0
655839.055,0,0,0,1.000,1.000,1.000,-90.00,180.00,-54.00,OPEN,0
655839.103,0,0,0,1.000,1.000,1.000,-90.00,180.00,-54.00,OPEN,0
655839.155,0,0,0,1.000,1.000,1.000,-90.00,180.00,-54.00,OPEN,0
655839.203,0,0,0,1.000,1.000,1.000,-90.00,180.00,-54.00,OPEN,0
655839.254,0,0,0,1.000,1.000,1.000,-90.00,180.00,-54.00,OPEN,0
655839.304,0,0,0,1.000,1.000,1.000,-90.00,180.00,-54.00,OPEN,0
655839.353,0,0,0,1.000,1.000,1.000,-90.00,180.00,-54.00,OPEN,0
655839.403,0,0,0,1.000,1.000,1.000,-90.00,180.00,-54.00,OPEN,0
655839.453,0,0,0,1.000,1.000,1.000,-90.00,180.00,-54.00,OPEN,0
655839.504,0,0,0,1.000,1.000,1.000,-90.00,180.00,-54.00,OPEN,0
655839.559,0,0,0,1.000,1.000,1.000,-90.00,180.00,-54.00,OPEN,0
655839.603,0,0,0,1.000,1.000,1.000,-90.00,180.00,-54.00,OPEN,0
655839.654,0,0,0,1.000,1.000,1.000,-90.00,180.00,-54.00,OPEN,0
655839.708,0,0,0,1.000,1.000,1.000,-90.00,180.00,-54.00,OPEN,0
655839.754,0,0,0,1.000,1.000,1.000,-90.00,180.00,-54.00,OPEN,0
655839.810,0,0,0,1.000,1.000,1.000,-90.00,180.00,-54.00,OPEN,0
655839.853,0,0,0,1.000,1.000,1.000,-90.00,180.00,-54.00,OPEN,0
655839.903,0,0,0,1.000,1.000,1.000,-90.00,180.00,-54.00,OPEN,0
655839.962,0,0,0,1.000,1.000,1.000,-90.00,180.00,-54.00,OPEN,0
655840.011,0,0,0,1.000,1.000,1.000,-90.00,180.00,-54.00,OPEN,0
655840.057,0,0,0,1.000,1.000,1.000,-90.00,180.00,-54.00,OPEN,0
655840.104,0,0,0,1.000,1.000,1.000,-90.00,180.00,-54.00,OPEN,0
655840.153,0,0,0,1.000,1.000,1.000,-90.00,180.00,-54.00,OPEN,0
655840.207,0,0,0,1.000,1.000,1.000,-90.00,180.00,-54.00,OPEN,0
655840.254,0,0,0,1.000,1.000,1.000,-90.00,180.00,-54.00,OPEN,0
655840.304,0,0,0,1.000,1.000,1.000,-90.00,180.00,-54.00,OPEN,0
655840.354,0,0,0,1.000,1.000,1.000,-90.00,180.00,-54.00,OPEN,0
655840.407,0,0,0,1.000,1.000,1.000,-90.00,180.00,-54.00,OPEN,0
655840.458,0,0,0,1.000,1.000,1.000,-90.00,180.00,-54.00,OPEN,0
655840.503,0,0,0,1.000,1.000,1.000,-90.00,180.00,-54.00,OPEN,0
655840.553,0,0,0,1.000,1.000,1.000,-90.00,180.00,-54.00,OPEN,0
655840.605,0,0,0,1.000,1.000,1.000,-90.00,180.00,-54.00,OPEN,0
655840.658,0,0,0,1.000,1.000,1.000,-90.00,180.00,-54.00,OPEN,0
655840.706,0,0,0,1.000,1.000,1.000,-90.00,180.00,-54.00,OPEN,0
655840.754,0,0,0,1.000,1.000,1.000,-90.00,180.00,-54.00,OPEN,0
655840.803,0,0,0,1.000,1.000,1.000,-90.00,180.00,-54.00,OPEN,0
655840.855,0,0,0,1.000,1.000,1.000,-90.00,180.00,-54.00,OPEN,0
655840.907,0,0,0,1.000,1.000,1.000,-90.00,180.00,-54.00,OPEN,0
655840.956,0,0,0,1.000,1.000,1.000,-90.00,180.00,-54.00,OPEN,0
655841.003,0,0,0,1.000,1.000,1.000,-90.00,180.00,-54.00,OPEN,0
655841.053,0,0,0,1.000,1.000,1.000,-90.00,180.00,-54.00,OPEN,0
655841.105,0,0,0,1.000,1.000,1.000,-90.00,180.00,-54.00,OPEN,0
655841.153,0,0,0,1.000,1.000,1.000,-90.00,180.00,-54.00,OPEN,0
655841.203,0,0,0,1.000,1.000,1.000,-90.00,180.00,-54.00,OPEN,0
655841.254,0,0,0,0.999,1.000,1.000,-90.00,180.00,-54.00,OPEN,0
655841.305,0,0,0,0.997,1.000,1.000,-90.00,180.00,-54.00,OPEN,0
655841.354,0,0,0,0.997,1.000,1.000,-90.00,180.00,-54.00,OPEN,0
655841.405,0,0,0,0.991,1.000,1.000,-90.00,180.00,-54.00,OPEN,0
655841.455,0,0,0,0.989,1.000,1.000,-90.00,180.00,-54.00,OPEN,0
655841.506,0,0,0,0.999,1.000,1.000,-90.00,180.00,-54.00,OPEN,0
655841.555,0,0,0,1.000,1.000,1.000,-90.00,180.00,-54.00,OPEN,0
655841.606,0,0,0,1.000,1.000,1.000,-90.00,180.00,-54.00,OPEN,0
655841.655,0,0,0,1.000,1.000,1.000,-90.00,180.00,-54.00,OPEN,0
655841.708,0,0,0,1.000,1.000,1.000,-90.00,180.00,-54.00,OPEN,0
655841.753,0,0,0,1.000,1.000,1.000,-90.00,180.00,-54.00,OPEN,0
655841.809,0,0,0,1.000,1.000,1.000,-90.00,180.00,-54.00,OPEN,0
655841.853,0,0,0,1.000,1.000,1.000,-90.00,180.00,-54.00,OPEN,0
655841.909,0,0,0,1.000,1.000,1.000,-90.00,180.00,-54.00,OPEN,0
655841.953,0,0,0,1.000,1.000,1.000,-90.00,180.00,-54.00,OPEN,0
655842.009,0,0,0,1.000,1.000,1.000,-90.00,180.00,-54.00,OPEN,0
655842.057,0,0,0,1.000,1.000,1.000,-90.00,180.00,-54.00,OPEN,0
655842.103,0,0,0,1.000,1.000,1.000,-90.00,180.00,-54.00,OPEN,0
655842.155,0,0,0,1.000,1.000,1.000,-90.00,180.00,-54.00,OPEN,0
655842.209,0,0,0,1.000,1.000,1.000,-90.00,180.00,-54.00,OPEN,0
655842.253,0,0,0,1.000,1.000,1.000,-90.00,180.00,-54.00,OPEN,0
655842.303,0,0,0,1.000,1.000,1.000,-90.00,180.00,-54.00,OPEN,0
655842.355,0,0,0,1.000,1.000,1.000,-90.00,180.00,-54.00,OPEN,0
655842.409,0,0,0,1.000,1.000,1.000,-90.00,180.00,-54.00,OPEN,0
655842.453,0,0,0,1.000,1.000,1.000,-90.00,180.00,-54.00,OPEN,0
655842.503,0,0,0,1.000,1.000,1.000,-90.00,180.00,-54.00,OPEN,0
655842.553,0,0,0,1.000,1.000,1.000,-90.00,180.00,-54.00,OPEN,0
655842.605,0,0,0,1.000,1.000,1.000,-90.00,180.00,-54.00,OPEN,0
655842.654,0,0,0,1.000,1.000,1.000,-90.00,180.00,-54.00,OPEN,0
655842.704,0,0,0,1.000,1.000,1.000,-90.00,180.00,-54.00,OPEN,0
655842.758,0,0,0,1.000,1.000,1.000,-90.00,180.00,-54.00,OPEN,0
655842.807,0,0,0,1.000,1.000,1.000,-90.00,180.00,-54.00,OPEN,0
655842.858,0,0,0,0.863,1.000,1.000,-90.00,180.00,-54.00,OPEN,0
655842.903,0,0,0,0.956,1.000,1.000,-90.00,180.00,-54.00,OPEN,0
655842.955,0,0,0,0.993,1.000,1.000,-90.00,180.00,-54.00,OPEN,0
655843.003,0,0,0,0.993,1.000,1.000,-90.00,180.00,-54.00,OPEN,0
655843.055,0,0,0,0.970,1.000,1.000,-90.00,180.00,-54.00,OPEN,0
655843.103,0,0,0,0.616,1.000,1.000,-90.00,180.00,-54.00,OPEN,0
655843.153,0,0,0,0.909,1.000,1.000,-90.00,180.00,-54.00,OPEN,0
655843.205,0,0,0,0.990,1.000,1.000,-90.00,180.00,-54.00,OPEN,0
655843.253,0,0,0,0.994,1.000,1.000,-90.00,180.00,-54.00,OPEN,0
655843.303,0,0,0,0.995,1.000,1.000,-90.00,180.00,-54.00,OPEN,0
655843.354,0,0,0,0.996,1.000,1.000,-90.00,180.00,-54.00,OPEN,0
655843.407,0,0,0,0.995,1.000,1.000,-90.00,180.00,-54.00,OPEN,0
655843.461,0,0,0,0.993,1.000,1.000,-90.00,180.00,-54.00,OPEN,0
655843.504,3,0,0,0.990,1.000,1.000,-90.00,180.00,-54.00,CLOSED,0
655843.557,3,0,0,0.985,1.000,1.000,-90.00,180.00,-54.00,CLOSED,0
655843.603,3,0,0,0.983,1.000,1.000,-90.00,180.00,-54.00,CLOSED,0
655843.653,3,0,0,0.985,1.000,1.000,-90.00,180.00,-54.00,CLOSED,0
655843.709,3,0,0,0.989,1.000,1.000,-90.00,180.00,-54.00,CLOSED,0
655843.755,3,0,0,0.995,1.000,1.000,-90.00,180.00,-54.00,CLOSED,0
655843.808,3,0,0,0.997,1.000,1.000,-90.00,180.00,-54.00,CLOSED,0
655843.856,3,0,0,0.999,1.000,1.000,-90.00,180.00,-54.00,CLOSED,0
655843.908,3,0,0,0.999,1.000,1.000,-90.00,180.00,-54.00,CLOSED,0
655843.953,3,0,0,1.000,1.000,1.000,-90.00,180.00,-54.00,CLOSED,0
655844.006,3,0,0,1.000,1.000,1.000,-90.00,180.00,-54.00,CLOSED,0
655844.058,3,0,0,1.000,1.000,1.000,-90.00,180.00,-54.00,CLOSED,0
655844.106,3,0,0,1.000,1.000,1.000,-90.00,180.00,-54.00,CLOSED,0
655844.154,3,0,0,1.000,1.000,1.000,-90.00,180.00,-54.00,CLOSED,0
655844.206,3,0,0,1.000,1.000,1.000,-90.00,180.00,-54.00,CLOSED,0
655844.253,3,0,0,1.000,1.000,1.000,-90.00,180.00,-54.00,CLOSED,0
655844.304,3,0,0,1.000,1.000,1.000,-90.00,180.00,-54.00,CLOSED,0
655844.357,3,0,0,1.000,1.000,1.000,-90.00,180.00,-54.00,CLOSED,0
655844.407,3,0,0,1.000,1.000,1.000,-90.00,180.00,-54.00,CLOSED,0
655844.455,3,0,0,1.000,1.000,1.000,-90.00,180.00,-54.00,CLOSED,0
655844.504,3,0,0,1.000,1.000,1.000,-90.00,180.00,-54.00,CLOSED,0
655844.555,3,0,0,1.000,1.000,1.000,-90.00,180.00,-54.00,CLOSED,0
655844.603,3,0,0,1.000,1.000,1.000,-90.00,180.00,-54.00,CLOSED,0
655844.653,3,0,0,1.000,1.000,1.000,-90.00,180.00,-54.00,CLOSED,0
655844.703,3,0,0,1.000,1.000,1.000,-90.00,180.00,-54.00,CLOSED,0
655844.757,3,0,0,0.999,1.000,1.000,-90.00,180.00,-54.00,CLOSED,0
655844.807,3,0,0,0.997,1.000,1.000,-90.00,180.00,-54.00,CLOSED,0
655844.853,3,0,0,0.992,1.000,1.000,-90.00,180.00,-54.00,CLOSED,0
655844.903,3,0,0,0.987,1.000,1.000,-90.00,180.00,-54.00,CLOSED,0
655844.953,3,0,0,0.985,1.000,1.000,-90.00,180.00,-54.00,CLOSED,0
655845.004,3,0,0,0.989,1.000,1.000,-90.00,180.00,-54.00,CLOSED,0
655845.057,3,0,0,0.993,1.000,1.000,-90.00,180.00,-54.00,CLOSED,0
655845.108,3,0,0,0.996,1.000,1.000,-90.00,180.00,-54.00,CLOSED,0
655845.156,3,0,0,0.997,1.000,1.000,-90.00,180.00,-54.00,CLOSED,0
655845.203,3,0,0,0.998,1.000,1.000,-90.00,180.00,-54.00,CLOSED,0
655845.257,3,0,0,0.998,1.000,1.000,-90.00,180.00,-54.00,CLOSED,0
655845.303,3,0,0,0.999,1.000,1.000,-90.00,180.00,-54.00,CLOSED,0
655845.359,3,0,0,0.999,1.000,1.000,-90.00,180.00,-54.00,CLOSED,0
655845.407,3,0,0,0.999,1.000,1.000,-90.00,180.00,-54.00,CLOSED,0
655845.457,3,0,0,1.000,1.000,1.000,-90.00,180.00,-54.00,CLOSED,0
655845.506,3,0,0,1.000,1.000,1.000,-90.00,180.00,-54.00,CLOSED,0
655845.554,3,0,0,1.000,1.000,1.000,-90.00,180.00,-54.00,CLOSED,0
655845.612,3,0,0,1.000,1.000,1.000,-90.00,180.00,-54.00,CLOSED,0
655845.653,3,0,0,1.000,1.000,1.000,-90.00,180.00,-54.00,CLOSED,0
655845.703,3,0,0,1.000,1.000,1.000,-90.00,180.00,-54.00,CLOSED,0
655845.753,3,0,0,1.000,1.000,1.000,-90.00,180.00,-54.00,CLOSED,0
655845.807,3,0,0,1.000,1.000,1.000,-90.00,180.00,-54.00,CLOSED,0
655845.853,3,0,0,1.000,1.000,1.000,-90.00,180.00,-54.00,CLOSED,0
655845.908,3,0,0,1.000,1.000,1.000,-90.00,180.00,-54.00,CLOSED,0
655845.957,3,0,0,1.000,1.000,1.000,-90.00,180.00,-54.00,CLOSED,0
655846.008,3,0,0,1.000,1.000,1.000,-90.00,180.00,-54.00,CLOSED,0
655846.057,3,0,0,1.000,1.000,1.000,-90.00,180.00,-54.00,CLOSED,0
655846.103,3,0,0,1.000,1.000,1.000,-90.00,180.00,-54.00,CLOSED,0
655846.157,3,0,0,1.000,1.000,1.000,-90.00,180.00,-54.00,CLOSED,0
655846.203,3,0,0,1.000,1.000,1.000,-90.00,180.00,-54.00,CLOSED,0
655846.254,3,0,0,1.000,1.000,1.000,-90.00,180.00,-54.00,CLOSED,0
655846.303,3,0,0,1.000,1.000,1.000,-90.00,180.00,-54.00,CLOSED,0
655846.353,3,0,0,1.000,1.000,1.000,-90.00,180.00,-54.00,CLOSED,0
655846.403,3,0,0,1.000,1.000,1.000,-90.00,180.00,-54.00,CLOSED,0
655846.457,3,0,0,1.000,1.000,1.000,-90.00,180.00,-54.00,CLOSED,0
655846.504,3,0,0,1.000,1.000,1.000,-90.00,180.00,-54.00,CLOSED,0
655846.554,3,0,0,1.000,1.000,1.000,-90.00,180.00,-54.00,CLOSED,0
655846.603,3,0,0,1.000,1.000,1.000,-90.00,180.00,-54.00,CLOSED,0
655846.653,3,0,0,1.000,1.000,1.000,-90.00,180.00,-54.00,CLOSED,0
655846.704,3,0,0,1.000,1.000,1.000,-90.00,180.00,-54.00,CLOSED,0
655846.753,3,0,0,1.000,1.000,1.000,-90.00,180.00,-54.00,CLOSED,0
655846.809,3,0,0,1.000,1.000,1.000,-90.00,180.00,-54.00,CLOSED,0
655846.857,3,0,0,1.000,1.000,1.000,-90.00,180.00,-54.00,CLOSED,0
655846.907,3,0,0,1.000,1.000,1.000,-90.00,180.00,-54.00,CLOSED,0
655846.954,3,0,0,1.000,1.000,1.000,-90.00,180.00,-54.00,CLOSED,0
655847.003,3,0,0,1.000,1.000,1.000,-90.00,180.00,-54.00,CLOSED,0
655847.057,3,0,0,1.000,1.000,1.000,-90.00,180.00,-54.00,CLOSED,0
655847.103,3,0,0,1.000,1.000,1.000,-90.00,180.00,-54.00,CLOSED,0
655847.153,3,0,0,1.000,1.000,1.000,-90.00,180.00,-54.00,CLOSED,0
655847.203,3,0,0,1.000,1.000,1.000,-90.00,180.00,-54.00,CLOSED,0
655847.258,3,0,0,1.000,1.000,1.000,-90.00,180.00,-54.00,CLOSED,0
655847.307,3,0,0,1.000,1.000,1.000,-90.00,180.00,-54.00,CLOSED,0
655847.358,3,0,0,1.000,1.000,1.000,-90.00,180.00,-54.00,CLOSED,0
655847.407,3,0,0,1.000,1.000,1.000,-90.00,180.00,-54.00,CLOSED,0
655847.457,3,0,0,1.000,1.000,1.000,-90.00,180.00,-54.00,CLOSED,0
655847.510,3,0,0,1.000,1.000,1.000,-90.00,180.00,-54.00,CLOSED,0
655847.560,3,0,0,1.000,1.000,1.000,-90.00,180.00,-54.00,CLOSED,0
655847.603,3,0,0,1.000,1.000,1.000,-90.00,180.00,-54.00,CLOSED,0
655847.658,3,0,0,1.000,1.000,1.000,-90.00,180.00,-54.00,CLOSED,0
655847.704,3,0,0,1.000,1.000,1.000,-90.00,180.00,-54.00,CLOSED,0
655847.753,3,0,0,1.000,1.000,1.000,-90.00,180.00,-54.00,CLOSED,0
655847.808,3,0,0,1.000,1.000,1.000,-90.00,180.00,-54.00,CLOSED,0
655847.857,3,0,0,1.000,1.000,1.000,-90.00,180.00,-54.00,CLOSED,0
655847.903,3,0,0,1.000,1.000,1.000,-90.00,180.00,-54.00,CLOSED,0
655847.953,3,0,0,1.000,1.000,1.000,-90.00,180.00,-54.00,CLOSED,0
655848.005,3,0,0,1.000,1.000,1.000,-90.00,180.00,-54.00,CLOSED,0
655848.057,3,0,0,1.000,1.000,1.000,-90.00,180.00,-54.00,CLOSED,0
655848.104,3,0,0,1.000,1.000,1.000,-90.00,180.00,-54.00,CLOSED,0
655848.155,3,0,0,0.999,1.000,1.000,-90.00,180.00,-54.00,CLOSED,0
655848.204,3,0,0,0.999,1.000,1.000,-90.00,180.00,-54.00,CLOSED,0
655848.257,3,0,0,0.999,1.000,1.000,-90.00,180.00,-54.00,CLOSED,0
655848.307,3,0,0,1.000,1.000,1.000,-90.00,180.00,-54.00,CLOSED,0
655848.356,3,0,0,1.000,1.000,1.000,-90.00,180.00,-54.00,CLOSED,0
655848.411,3,0,0,1.000,1.000,1.000,-90.00,180.00,-54.00,CLOSED,0
655848.459,3,0,0,1.000,1.000,1.000,-90.00,180.00,-54.00,CLOSED,0
655848.503,3,0,0,1.000,1.000,1.000,-90.00,180.00,-54.00,CLOSED,0
655848.553,3,0,0,1.000,1.000,1.000,-90.00,180.00,-54.00,CLOSED,0
655848.605,3,0,0,1.000,1.000,1.000,-90.00,180.00,-54.00,CLOSED,0
655848.659,3,0,0,1.000,1.000,1.000,-90.00,180.00,-54.00,CLOSED,0
655848.704,3,0,0,1.000,1.000,1.000,-90.00,180.00,-54.00,CLOSED,0
655848.752,3,0,0,1.000,1.000,1.000,-90.00,180.00,-54.00,CLOSED,0
655848.803,3,0,0,1.000,1.000,1.000,-90.00,180.00,-54.00,CLOSED,0
655848.853,3,0,0,1.000,1.000,1.000,-90.00,180.00,-54.00,CLOSED,0
655848.903,3,0,0,1.000,1.000,1.000,-90.00,180.00,-54.00,CLOSED,0
655848.957,3,0,0,1.000,1.000,1.000,-90.00,180.00,-54.00,CLOSED,0
655849.003,3,0,0,1.000,1.000,1.000,-90.00,180.00,-54.00,CLOSED,0
655849.058,3,0,0,1.000,1.000,1.000,-90.00,180.00,-54.00,CLOSED,0
655849.105,3,0,0,0.984,1.000,1.000,-90.00,180.00,-54.00,CLOSED,0
655849.155,3,0,0,0.751,1.000,1.000,-90.00,180.00,-54.00,CLOSED,0
655849.204,3,0,0,0.676,1.000,1.000,-90.00,180.00,-54.00,CLOSED,0
655849.253,3,0,0,0.897,1.000,1.000,-90.00,180.00,-54.00,CLOSED,0
655849.303,3,0,0,0.933,1.000,1.000,-90.00,180.00,-54.00,CLOSED,0
655849.353,3,0,0,0.995,1.000,1.000,-90.00,180.00,-54.00,CLOSED,0
655849.405,3,0,0,1.000,1.000,1.000,-90.00,180.00,-54.00,CLOSED,0
655849.457,3,0,0,1.000,1.000,1.000,-90.00,180.00,-54.00,CLOSED,0
655849.504,3,0,0,1.000,1.000,1.000,-90.00,180.00,-54.00,CLOSED,0
655849.554,3,0,0,1.000,1.000,1.000,-90.00,180.00,-54.00,CLOSED,0
655849.603,0,0,0,1.000,1.000,1.000,-90.00,180.00,-54.00,CLOSED,0
655849.653,0,0,0,1.000,1.000,1.000,-90.00,180.00,-54.00,CLOSED,0
655849.705,0,0,0,1.000,1.000,1.000,-90.00,180.00,-54.00,CLOSED,0
655849.754,0,0,0,1.000,1.000,1.000,-90.00,180.00,-54.00,CLOSED,0
655849.805,0,0,0,1.000,1.000,1.000,-90.00,180.00,-54.00,CLOSED,0
655849.854,0,0,0,1.000,1.000,1.000,-90.00,180.00,-54.00,CLOSED,0
655849.906,0,0,0,1.000,1.000,1.000,-90.00,180.00,-54.00,CLOSED,0
655849.957,0,0,0,1.000,1.000,1.000,-90.00,180.00,-54.00,CLOSED,0
655850.008,0,0,0,1.000,1.000,1.000,-90.00,180.00,-54.00,CLOSED,0
655850.057,0,0,0,1.000,1.000,1.000,-90.00,180.00,-54.00,CLOSED,0
655850.103,0,0,0,1.000,1.000,1.000,-90.00,180.00,-54.00,CLOSED,0
655850.157,0,0,0,1.000,1.000,1.000,-90.00,180.00,-54.00,CLOSED,0
655850.208,0,0,0,1.000,1.000,1.000,-90.00,180.00,-54.00,CLOSED,0
655850.257,0,0,0,1.000,1.000,1.000,-90.00,180.00,-54.00,CLOSED,0
655850.308,0,0,0,1.000,1.000,1.000,-90.00,180.00,-54.00,CLOSED,0
655850.359,0,0,0,1.000,1.000,1.000,-90.00,180.00,-54.00,CLOSED,0
655850.411,0,0,0,1.000,1.000,1.000,-90.00,180.00,-54.00,CLOSED,0
655850.453,0,0,0,1.000,1.000,1.000,-90.00,180.00,-54.00,CLOSED,0
655850.507,0,0,0,1.000,1.000,1.000,-90.00,180.00,-54.00,CLOSED,0
655850.553,0,0,0,1.000,1.000,1.000,-90.00,180.00,-54.00,CLOSED,0
655850.603,0,0,0,1.000,1.000,1.000,-90.00,180.00,-54.00,CLOSED,0
655850.654,0,0,0,1.000,1.000,1.000,-90.00,180.00,-54.00,CLOSED,0
655850.709,0,0,0,1.000,1.000,1.000,-90.00,180.00,-54.00,CLOSED,0
655850.759,0,0,0,1.000,1.000,1.000,-90.00,180.00,-54.00,CLOSED,0
655850.808,0,0,0,1.000,1.000,1.000,-90.00,180.00,-54.00,CLOSED,0
655850.857,0,0,0,1.000,1.000,1.000,-90.00,180.00,-54.00,CLOSED,0
655850.907,0,0,0,1.000,1.000,1.000,-90.00,180.00,-54.00,CLOSED,0
655850.959,0,0,0,1.000,1.000,1.000,-90.00,180.00,-54.00,CLOSED,0
655851.007,0,0,0,1.000,1.000,1.000,-90.00,180.00,-54.00,CLOSED,0
655851.058,0,0,0,1.000,1.000,1.000,-90.00,180.00,-54.00,CLOSED,0
655851.107,0,0,0,1.000,1.000,1.000,-90.00,180.00,-54.00,CLOSED,0
655851.153,0,0,0,1.000,1.000,1.000,-90.00,180.00,-54.00,CLOSED,0
655851.203,0,0,0,1.000,1.000,1.000,-90.00,180.00,-54.00,CLOSED,0
655851.255,0,0,0,1.000,1.000,1.000,-90.00,180.00,-54.00,CLOSED,0
655851.307,0,0,0,1.000,1.000,1.000,-90.00,180.00,-54.00,CLOSED,0
655851.355,0,0,0,1.000,1.000,1.000,-90.00,180.00,-54.00,CLOSED,0
655851.403,0,0,0,1.000,1.000,1.000,-90.00,180.00,-54.00,CLOSED,0
655851.457,0,0,0,1.000,1.000,1.000,-90.00,180.00,-54.00,CLOSED,0
655851.503,0,0,0,1.000,1.000,1.000,-90.00,180.00,-54.00,CLOSED,0
655851.553,0,0,0,1.000,1.000,1.000,-90.00,180.00,-54.00,CLOSED,0
655851.603,0,0,0,1.000,1.000,1.000,-90.00,180.00,-54.00,CLOSED,0
655851.653,0,0,0,1.000,1.000,1.000,-90.00,180.00,-54.00,CLOSED,0
655851.703,0,0,0,1.000,1.000,1.000,-90.00,180.00,-54.00,CLOSED,0
655851.759,0,0,0,1.000,1.000,1.000,-90.00,180.00,-54.00,CLOSED,0
655851.803,0,0,0,1.000,1.000,1.000,-90.00,180.00,-54.00,CLOSED,0
655851.853,0,0,0,1.000,1.000,1.000,-90.00,180.00,-54.00,CLOSED,0
655851.903,0,0,0,1.000,1.000,1.000,-90.00,180.00,-54.00,CLOSED,0
655851.954,0,0,0,1.000,1.000,1.000,-90.00,180.00,-54.00,CLOSED,0
655852.003,0,0,0,1.000,1.000,1.000,-90.00,180.00,-54.00,CLOSED,0
655852.054,0,0,0,1.000,1.000,1.000,-90.00,180.00,-54.00,CLOSED,0
655852.103,0,0,0,1.000,1.000,1.000,-90.00,180.00,-54.00,CLOSED,0
655852.153,0,0,0,1.000,1.000,1.000,-90.00,180.00,-54.00,CLOSED,0
655852.204,0,0,0,1.000,1.000,1.000,-90.00,180.00,-54.00,CLOSED,0
655852.257,0,0,0,1.000,1.000,1.000,-90.00,180.00,-54.00,CLOSED,0
655852.304,0,0,0,1.000,1.000,1.000,-90.00,180.00,-54.00,CLOSED,0
655852.357,0,0,0,1.000,1.000,1.000,-90.00,180.00,-54.00,CLOSED,0
655852.403,0,0,0,1.000,1.000,1.000,-90.00,180.00,-54.00,CLOSED,0
655852.454,0,0,0,1.000,1.000,1.000,-90.00,180.00,-54.00,CLOSED,0
655852.507,0,0,0,1.000,1.000,1.000,-90.00,180.00,-54.00,CLOSED,0
655852.554,0,0,0,1.000,1.000,1.000,-90.00,180.00,-54.00,CLOSED,0
655852.603,0,0,0,1.000,1.000,1.000,-90.00,180.00,-54.00,CLOSED,0
655852.652,0,0,0,1.000,1.000,1.000,-90.00,180.00,-54.00,CLOSED,0
655852.703,0,0,0,1.000,1.000,1.000,-90.00,180.00,-54.00,CLOSED,0
655852.760,0,0,0,1.000,1.000,1.000,-90.00,180.00,-54.00,CLOSED,0
655852.804,0,0,0,1.000,1.000,1.000,-90.00,180.00,-54.00,CLOSED,0
655852.853,0,0,0,1.000,1.000,1.000,-90.00,180.00,-54.00,CLOSED,0
655852.907,0,0,0,1.000,1.000,1.000,-90.00,180.00,-54.00,CLOSED,0
655852.958,0,0,0,1.000,1.000,1.000,-90.00,180.00,-54.00,CLOSED,0
655853.006,0,0,0,1.000,1.000,1.000,-90.00,180.00,-54.00,CLOSED,0
655853.057,0,0,0,1.000,1.000,1.000,-90.00,180.00,-54.00,CLOSED,0
655853.103,0,0,0,1.000,1.000,1.000,-90.00,180.00,-54.00,CLOSED,0
655853.156,0,0,0,1.000,1.000,1.000,-90.00,180.00,-54.00,CLOSED,0
655853.207,0,0,0,1.000,1.000,1.000,-90.00,180.00,-54.00,CLOSED,0
655853.253,0,0,0,1.000,1.000,1.000,-90.00,180.00,-54.00,CLOSED,0
655853.306,0,0,0,1.000,1.000,1.000,-90.00,180.00,-54.00,CLOSED,0
655853.354,0,0,0,1.000,1.000,1.000,-90.00,180.00,-54.00,CLOSED,0
655853.403,0,0,0,1.000,1.000,1.000,-90.00,180.00,-54.00,CLOSED,0
655853.453,0,0,0,1.000,1.000,1.000,-90.00,180.00,-54.00,CLOSED,0
655853.507,0,0,0,1.000,1.000,1.000,-90.00,180.00,-54.00,CLOSED,0
655853.553,0,0,0,1.000,1.000,1.000,-90.00,180.00,-54.00,CLOSED,0
655853.603,0,0,0,1.000,1.000,1.000,-90.00,180.00,-54.00,CLOSED,0
655853.657,0,0,0,1.000,1.000,1.000,-90.00,180.00,-54.00,CLOSED,0
655853.708,0,0,0,1.000,1.000,1.000,-90.00,180.00,-54.00,CLOSED,0
655853.757,0,0,0,1.000,1.000,1.000,-90.00,180.00,-54.00,CLOSED,0
655853.807,0,0,0,1.000,1.000,1.000,-90.00,180.00,-54.00,CLOSED,0
655853.853,0,0,0,1.000,1.000,1.000,-90.00,180.00,-54.00,CLOSED,0
655853.908,0,0,0,1.000,1.000,1.000,-90.00,180.00,-54.00,CLOSED,0
655853.957,0,0,0,1.000,1.000,1.000,-90.00,180.00,-54.00,CLOSED,0
655854.004,0,0,0,1.000,1.000,1.000,-90.00,180.00,-54.00,CLOSED,0
655854.057,0,0,0,1.000,1.000,1.000,-90.00,180.00,-54.00,CLOSED,0
655854.109,0,0,0,1.000,1.000,1.000,-90.00,180.00,-54.00,CLOSED,0
655854.156,0,0,0,1.000,1.000,1.000,-90.00,180.00,-54.00,CLOSED,0
655854.204,0,0,0,1.000,1.000,1.000,-90.00,180.00,-54.00,CLOSED,0
655854.253,0,0,0,1.000,1.000,1.000,-90.00,180.00,-54.00,CLOSED,0
655854.303,0,0,0,1.000,1.000,1.000,-90.00,180.00,-54.00,CLOSED,0
655854.357,0,0,0,1.000,1.000,1.000,-90.00,180.00,-54.00,CLOSED,0
655854.409,0,0,0,1.000,1.000,1.000,-90.00,180.00,-54.00,CLOSED,0
655854.453,0,0,0,1.000,1.000,1.000,-90.00,180.00,-54.00,CLOSED,0
655854.503,0,0,0,1.000,1.000,1.000,-90.00,180.00,-54.00,CLOSED,0
655854.553,0,0,0,1.000,1.000,1.000,-90.00,180.00,-54.00,CLOSED,0
655854.604,0,0,0,1.000,1.000,1.000,-90.00,180.00,-54.00,CLOSED,0
655854.655,0,0,0,1.000,1.000,1.000,-90.00,180.00,-54.00,CLOSED,0
655854.704,0,0,0,1.000,1.000,1.000,-90.00,180.00,-54.00,CLOSED,0
655854.753,0,0,0,1.000,1.000,1.000,-90.00,180.00,-54.00,CLOSED,0
655854.803,0,0,0,1.000,1.000,1.000,-90.00,180.00,-54.00,CLOSED,0
655854.854,0,0,0,1.000,1.000,1.000,-90.00,180.00,-54.00,CLOSED,0
655854.904,0,0,0,1.000,1.000,1.000,-90.00,180.00,-54.00,CLOSED,0
655854.960,0,0,0,1.000,1.000,1.000,-90.00,180.00,-54.00,CLOSED,0
655855.003,0,0,0,1.000,1.000,1.000,-90.00,180.00,-54.00,CLOSED,0
655855.055,0,0,0,1.000,1.000,1.000,-90.00,180.00,-54.00,CLOSED,0
655855.107,0,0,0,1.000,1.000,1.000,-90.00,180.00,-54.00,CLOSED,0
655855.154,0,0,0,1.000,1.000,1.000,-90.00,180.00,-54.00,CLOSED,0
655855.203,0,0,0,1.000,1.000,1.000,-90.00,180.00,-54.00,CLOSED,0
655855.254,0,0,0,1.000,1.000,1.000,-90.00,180.00,-54.00,CLOSED,0
655855.303,0,0,0,1.000,1.000,1.000,-90.00,180.00,-54.00,CLOSED,0
655855.353,0,0,0,1.000,1.000,1.000,-90.00,180.00,-54.00,CLOSED,0
655855.407,0,0,0,1.000,1.000,1.000,-90.00,180.00,-54.00,CLOSED,0
655855.456,0,0,0,1.000,1.000,1.000,-90.00,180.00,-54.00,CLOSED,0
655855.507,0,0,0,1.000,1.000,1.000,-90.00,180.00,-54.00,CLOSED,0
655855.557,0,0,0,1.000,1.000,1.000,-90.00,180.00,-54.00,CLOSED,0
655855.606,0,0,0,1.000,1.000,1.000,-90.00,180.00,-54.00,CLOSED,0
655855.657,0,0,0,1.000,1.000,1.000,-90.00,180.00,-54.00,CLOSED,0
655855.703,0,0,0,1.000,1.000,1.000,-90.00,180.00,-54.00,CLOSED,0
655855.754,0,0,0,1.000,1.000,1.000,-90.00,180.00,-54.00,CLOSED,0
655855.804,0,0,0,1.000,1.000,1.000,-90.00,180.00,-54.00,CLOSED,0
655855.853,0,0,0,1.000,1.000,1.000,-90.00,180.00,-54.00,CLOSED,0
655855.907,0,0,0,1.000,1.000,1.000,-90.00,180.00,-54.00,CLOSED,0
655855.957,0,0,0,1.000,1.000,1.000,-90.00,180.00,-54.00,CLOSED,0
655856.004,0,0,0,1.000,1.000,1.000,-90.00,180.00,-54.00,CLOSED,0
655856.053,0,0,0,1.000,1.000,1.000,-90.00,180.00,-54.00,CLOSED,0
655856.103,0,0,0,1.000,1.000,1.000,-90.00,180.00,-54.00,CLOSED,0
655856.154,0,0,0,1.000,1.000,1.000,-90.00,180.00,-54.00,CLOSED,0
655856.204,0,0,0,1.000,1.000,1.000,-90.00,180.00,-54.00,CLOSED,0
655856.254,0,0,0,1.000,1.000,1.000,-90.00,180.00,-54.00,CLOSED,0
655856.303,0,0,0,1.000,1.000,1.000,-90.00,180.00,-54.00,CLOSED,0
655856.353,0,0,0,1.000,1.000,1.000,-90.00,180.00,-54.00,CLOSED,0
655856.405,0,0,0,1.000,1.000,1.000,-90.00,180.00,-54.00,CLOSED,0
655856.453,0,0,0,1.000,1.000,1.000,-90.00,180.00,-54.00,CLOSED,0
655856.503,0,0,0,1.000,1.000,1.000,-90.00,180.00,-54.00,CLOSED,0
655856.557,0,0,0,1.000,1.000,1.000,-90.00,180.00,-54.00,CLOSED,0
655856.604,0,0,0,1.000,1.000,1.000,-90.00,180.00,-54.00,CLOSED,0
655856.653,0,0,0,1.000,1.000,1.000,-90.00,180.00,-54.00,CLOSED,0
655856.708,0,0,0,1.000,1.000,1.000,-90.00,180.00,-54.00,CLOSED,0
655856.757,0,0,0,1.000,1.000,1.000,-90.00,180.00,-54.00,CLOSED,0
655856.810,0,0,0,1.000,1.000,1.000,-90.00,180.00,-54.00,CLOSED,0
655856.854,0,0,0,1.000,1.000,1.000,-90.00,180.00,-54.00,CLOSED,0
655856.903,0,0,0,1.000,1.000,1.000,-90.00,180.00,-54.00,CLOSED,0
655856.958,0,0,0,1.000,1.000,1.000,-90.00,180.00,-54.00,CLOSED,0
655857.007,0,0,0,1.000,1.000,1.000,-90.00,180.00,-54.00,CLOSED,0
655857.057,0,0,0,1.000,1.000,1.000,-90.00,180.00,-54.00,CLOSED,0
655857.107,0,0,0,1.000,1.000,1.000,-90.00,180.00,-54.00,CLOSED,0
655857.157,0,0,0,1.000,1.000,1.000,-90.00,180.00,-54.00,CLOSED,0
655857.204,0,0,0,1.000,1.000,1.000,-90.00,180.00,-54.00,CLOSED,0
655857.253,0,0,0,1.000,1.000,1.000,-90.00,180.00,-54.00,CLOSED,0
655857.307,0,0,0,1.000,1.000,1.000,-90.00,180.00,-54.00,CLOSED,0
655857.353,0,0,0,1.000,1.000,1.000,-90.00,180.00,-54.00,CLOSED,0
655857.407,0,0,0,1.000,1.000,1.000,-90.00,180.00,-54.00,CLOSED,0
655857.453,0,0,0,1.000,1.000,1.000,-90.00,180.00,-54.00,CLOSED,0
655857.504,0,0,0,1.000,1.000,1.000,-90.00,180.00,-54.00,CLOSED,0
655857.553,0,0,0,1.000,1.000,1.000,-90.00,180.00,-54.00,CLOSED,0
655857.603,0,0,0,1.000,1.000,1.000,-90.00,180.00,-54.00,CLOSED,0
655857.656,0,0,0,1.000,1.000,1.000,-90.00,180.00,-54.00,CLOSED,0
655857.703,0,0,0,1.000,1.000,1.000,-90.00,180.00,-54.00,CLOSED,0
655857.753,0,0,0,1.000,1.000,1.000,-90.00,180.00,-54.00,CLOSED,0
655857.804,0,0,0,1.000,1.000,1.000,-90.00,180.00,-54.00,CLOSED,0
655857.853,0,0,0,1.000,1.000,1.000,-90.00,180.00,-54.00,CLOSED,0
655857.904,0,0,0,1.000,1.000,1.000,-90.00,180.00,-54.00,CLOSED,0
655857.953,0,0,0,1.000,1.000,1.000,-90.00,180.00,-54.00,CLOSED,0
655858.009,0,0,0,1.000,1.000,1.000,-90.00,180.00,-54.00,CLOSED,0
655858.053,0,0,0,1.000,1.000,1.000,-90.00,180.00,-54.00,CLOSED,0
655858.107,0,0,0,1.000,1.000,1.000,-90.00,180.00,-54.00,CLOSED,0
655858.154,0,0,0,1.000,1.000,1.000,-90.00,180.00,-54.00,CLOSED,0
655858.208,0,0,0,1.000,1.000,1.000,-90.00,180.00,-54.00,CLOSED,0
655858.257,0,0,0,1.000,1.000,1.000,-90.00,180.00,-54.00,CLOSED,0
655858.310,0,0,0,1.000,1.000,1.000,-90.00,180.00,-54.00,CLOSED,0
655858.357,0,0,0,1.000,1.000,1.000,-90.00,180.00,-54.00,CLOSED,0
655858.407,0,0,0,1.000,1.000,1.000,-90.00,180.00,-54.00,CLOSED,0
655858.457,0,0,0,1.000,1.000,1.000,-90.00,180.00,-54.00,CLOSED,0
655858.503,0,0,0,1.000,1.000,1.000,-90.00,180.00,-54.00,CLOSED,0
655858.556,0,0,0,1.000,1.000,1.000,-90.00,180.00,-54.00,CLOSED,0
655858.606,0,0,0,1.000,1.000,1.000,-90.00,180.00,-54.00,CLOSED,0
655858.658,0,0,0,1.000,1.000,1.000,-90.00,180.00,-54.00,CLOSED,0
655858.703,0,0,0,1.000,1.000,1.000,-90.00,180.00,-54.00,CLOSED,0
655858.754,0,0,0,1.000,1.000,1.000,-90.00,180.00,-54.00,CLOSED,0
655858.803,0,0,0,1.000,1.000,1.000,-90.00,180.00,-54.00,CLOSED,0
655858.853,0,0,0,1.000,1.000,1.000,-90.00,180.00,-54.00,CLOSED,0
655858.905,0,0,0,1.000,1.000,1.000,-90.00,180.00,-54.00,CLOSED,0
655858.957,0,0,0,1.000,1.000,1.000,-90.00,180.00,-54.00,CLOSED,0
655859.007,0,0,0,1.000,1.000,1.000,-90.00,180.00,-54.00,CLOSED,0
655859.054,0,0,0,1.000,1.000,1.000,-90.00,180.00,-54.00,CLOSED,0
655859.104,0,0,0,1.000,1.000,1.000,-90.00,180.00,-54.00,CLOSED,0
655859.158,0,0,0,1.000,1.000,1.000,-90.00,180.00,-54.00,CLOSED,0
655859.204,0,0,0,1.000,1.000,1.000,-90.00,180.00,-54.00,CLOSED,0
655859.266,0,0,0,1.000,1.000,1.000,-90.00,180.00,-54.00,CLOSED,0
655859.307,0,0,0,1.000,1.000,1.000,-90.00,180.00,-54.00,CLOSED,0
655859.357,0,0,0,1.000,1.000,1.000,-90.00,180.00,-54.00,CLOSED,0
655859.407,0,0,0,1.000,1.000,1.000,-90.00,180.00,-54.00,CLOSED,0
655859.454,0,0,0,1.000,1.000,1.000,-90.00,180.00,-54.00,CLOSED,0
655859.503,0,0,0,1.000,1.000,1.000,-90.00,180.00,-54.00,CLOSED,0
655859.554,0,0,0,1.000,1.000,1.000,-90.00,180.00,-54.00,CLOSED,0
655859.604,0,0,0,1.000,1.000,1.000,-90.00,180.00,-54.00,CLOSED,0
655859.662,0,0,0,1.000,1.000,1.000,-90.00,180.00,-54.00,CLOSED,0
655859.708,0,0,0,1.000,1.000,1.000,-90.00,180.00,-54.00,CLOSED,0
655859.753,0,0,0,1.000,1.000,1.000,-90.00,180.00,-54.00,CLOSED,0
655859.807,0,0,0,1.000,1.000,1.000,-90.00,180.00,-54.00,CLOSED,0
655859.855,0,0,0,1.000,1.000,1.000,-90.00,180.00,-54.00,CLOSED,0
655859.905,0,0,0,1.000,1.000,1.000,-90.00,180.00,-54.00,CLOSED,0
655859.953,0,0,0,1.000,1.000,1.000,-90.00,180.00,-54.00,CLOSED,0
655860.007,0,0,0,1.000,1.000,1.000,-90.00,180.00,-54.00,CLOSED,0
655860.053,0,0,0,1.000,1.000,1.000,-90.00,180.00,-54.00,CLOSED,0
655860.103,0,0,0,1.000,1.000,1.000,-90.00,180.00,-54.00,CLOSED,0
655860.154,0,0,0,1.000,1.000,1.000,-90.00,180.00,-54.00,CLOSED,0
655860.209,0,0,0,1.000,1.000,1.000,-90.00,180.00,-54.00,CLOSED,0
655860.253,0,0,0,1.000,1.000,1.000,-90.00,180.00,-54.00,CLOSED,0
655860.304,0,0,0,1.000,1.000,1.000,-90.00,180.00,-54.00,CLOSED,0
655860.357,0,0,0,1.000,1.000,1.000,-90.00,180.00,-54.00,CLOSED,0
655860.407,0,0,0,1.000,1.000,1.000,-90.00,180.00,-54.00,CLOSED,0
655860.453,0,0,0,1.000,1.000,1.000,-90.00,180.00,-54.00,CLOSED,0
655860.509,0,0,0,1.000,1.000,1.000,-90.00,180.00,-54.00,CLOSED,0
655860.557,0,0,0,1.000,1.000,1.000,-90.00,180.00,-54.00,CLOSED,0
655860.603,0,0,0,1.000,1.000,1.000,-90.00,180.00,-54.00,CLOSED,0
655860.653,0,0,0,1.000,1.000,1.000,-90.00,180.00,-54.00,CLOSED,0
655860.704,0,0,0,1.000,1.000,1.000,-90.00,180.00,-54.00,CLOSED,0
655860.755,0,0,0,1.000,1.000,1.000,-90.00,180.00,-54.00,CLOSED,0
655860.808,0,0,0,1.000,1.000,1.000,-90.00,180.00,-54.00,CLOSED,0
655860.860,0,0,0,1.000,1.000,1.000,-90.00,180.00,-54.00,CLOSED,0
655860.903,0,0,0,1.000,1.000,1.000,-90.00,180.00,-54.00,CLOSED,0
655860.953,0,0,0,1.000,1.000,1.000,-90.00,180.00,-54.00,CLOSED,0
655861.003,0,0,0,1.000,1.000,1.000,-90.00,180.00,-54.00,CLOSED,0
655861.057,0,0,0,1.000,1.000,1.000,-90.00,180.00,-54.00,CLOSED,0
655861.107,0,0,0,1.000,1.000,1.000,-90.00,180.00,-54.00,CLOSED,0
655861.154,0,0,0,1.000,1.000,1.000,-90.00,180.00,-54.00,CLOSED,0
655861.203,0,0,0,1.000,1.000,1.000,-90.00,180.00,-54.00,CLOSED,0
655861.254,0,0,0,1.000,1.000,1.000,-90.00,180.00,-54.00,CLOSED,0
655861.310,0,0,0,1.000,1.000,1.000,-90.00,180.00,-54.00,CLOSED,0
655861.357,0,0,0,1.000,1.000,1.000,-90.00,180.00,-54.00,CLOSED,0
655861.408,0,0,0,1.000,1.000,1.000,-90.00,180.00,-54.00,CLOSED,0
655861.456,0,0,0,1.000,1.000,1.000,-90.00,180.00,-54.00,CLOSED,0
655861.507,0,0,0,1.000,1.000,1.000,-90.00,180.00,-54.00,CLOSED,0
655861.553,0,0,0,1.000,1.000,1.000,-90.00,180.00,-54.00,CLOSED,0
655861.603,0,0,0,1.000,1.000,1.000,-90.00,180.00,-54.00,CLOSED,0
655861.658,0,0,0,1.000,1.000,1.000,-90.00,180.00,-54.00,CLOSED,0
655861.707,0,0,0,1.000,1.000,1.000,-90.00,180.00,-54.00,CLOSED,0
655861.757,0,0,0,1.000,1.000,1.000,-90.00,180.00,-54.00,CLOSED,0
655861.807,0,0,0,1.000,1.000,1.000,-90.00,180.00,-54.00,CLOSED,0
655861.858,0,0,0,1.000,1.000,1.000,-90.00,180.00,-54.00,CLOSED,0
655861.907,0,0,0,1.000,1.000,1.000,-90.00,180.00,-54.00,CLOSED,0
655861.958,0,0,0,1.000,1.000,1.000,-90.00,180.00,-54.00,CLOSED,0
655862.007,0,0,0,1.000,1.000,1.000,-90.00,180.00,-54.00,CLOSED,0
655862.057,0,0,0,1.000,1.000,1.000,-90.00,180.00,-54.00,CLOSED,0
655862.104,0,0,0,1.000,1.000,1.000,-90.00,180.00,-54.00,CLOSED,0
655862.157,0,0,0,1.000,1.000,1.000,-90.00,180.00,-54.00,CLOSED,0
655862.204,0,0,0,1.000,1.000,1.000,-90.00,180.00,-54.00,CLOSED,0
655862.255,0,0,0,1.000,1.000,1.000,-90.00,180.00,-54.00,CLOSED,0
655862.307,0,0,0,1.000,1.000,1.000,-90.00,180.00,-54.00,CLOSED,0
655862.353,0,0,0,1.000,1.000,1.000,-90.00,180.00,-54.00,CLOSED,0
655862.403,0,0,0,1.000,1.000,1.000,-90.00,180.00,-54.00,CLOSED,0
655862.455,0,0,0,1.000,1.000,1.000,-90.00,180.00,-54.00,CLOSED,0
655862.503,0,0,0,1.000,1.000,1.000,-90.00,180.00,-54.00,CLOSED,0
655862.554,0,0,0,1.000,1.000,1.000,-90.00,180.00,-54.00,CLOSED,0
655862.608,0,0,0,1.000,1.000,1.000,-90.00,180.00,-54.00,CLOSED,0
655862.653,0,0,0,1.000,1.000,1.000,-90.00,180.00,-54.00,CLOSED,0
655862.708,0,0,0,1.000,1.000,1.000,-90.00,180.00,-54.00,CLOSED,0
655862.753,0,0,0,1.000,1.000,1.000,-90.00,180.00,-54.00,CLOSED,0
655862.811,0,0,0,1.000,1.000,1.000,-90.00,180.00,-54.00,CLOSED,0
655862.854,0,0,0,1.000,1.000,1.000,-90.00,180.00,-54.00,CLOSED,0
655862.903,0,0,0,1.000,1.000,1.000,-90.00,180.00,-54.00,CLOSED,0
655862.955,0,0,0,1.000,1.000,1.000,-90.00,180.00,-54.00,CLOSED,0
655863.007,0,0,0,0.996,1.000,1.000,-90.00,180.00,-54.00,CLOSED,0
655863.053,0,0,0,0.993,1.000,1.000,-90.00,180.00,-54.00,CLOSED,0
655863.103,0,0,0,1.000,1.000,1.000,-90.00,180.00,-54.00,CLOSED,0
655863.153,0,0,0,1.000,1.000,1.000,-90.00,180.00,-54.00,CLOSED,0
655863.203,0,0,0,1.000,1.000,1.000,-90.00,180.00,-54.00,CLOSED,0
655863.259,0,0,0,1.000,1.000,1.000,-90.00,180.00,-54.00,CLOSED,0
655863.307,0,0,0,1.000,1.000,1.000,-90.00,180.00,-54.00,CLOSED,0
655863.357,0,0,0,1.000,1.000,1.000,-90.00,180.00,-54.00,CLOSED,0
655863.407,0,0,0,0.990,1.000,1.000,-90.00,180.00,-54.00,CLOSED,0
655863.453,0,0,0,0.999,1.000,1.000,-90.00,180.00,-54.00,CLOSED,0
655863.503,0,0,0,0.991,1.000,1.000,-90.00,180.00,-54.00,CLOSED,0
655863.553,0,0,0,0.992,1.000,1.000,-90.00,180.00,-54.00,CLOSED,0
655863.607,0,0,0,0.998,1.000,1.000,-90.00,180.00,-54.00,CLOSED,0
655863.657,0,0,0,1.000,1.000,1.000,-90.00,180.00,-54.00,CLOSED,0
655863.707,0,0,0,1.000,1.000,1.000,-90.00,180.00,-54.00,CLOSED,0
655863.753,0,0,0,1.000,1.000,1.000,-90.00,180.00,-54.00,CLOSED,0
655863.805,0,0,0,1.000,1.000,1.000,-90.00,180.00,-54.00,CLOSED,0
655863.854,0,0,0,1.000,1.000,1.000,-90.00,180.00,-54.00,CLOSED,0
655863.903,0,0,0,1.000,1.000,1.000,-90.00,180.00,-54.00,CLOSED,0
655863.957,0,0,0,1.000,1.000,1.000,-90.00,180.00,-54.00,CLOSED,0
655864.008,0,0,0,1.000,1.000,1.000,-90.00,180.00,-54.00,CLOSED,0
655864.057,0,0,0,1.000,1.000,1.000,-90.00,180.00,-54.00,CLOSED,0
655864.107,0,0,0,1.000,1.000,1.000,-90.00,180.00,-54.00,CLOSED,0
655864.154,0,0,0,1.000,1.000,1.000,-90.00,180.00,-54.00,CLOSED,0
655864.207,0,0,0,1.000,1.000,1.000,-90.00,180.00,-54.00,CLOSED,0
655864.257,0,0,0,1.000,1.000,1.000,-90.00,180.00,-54.00,CLOSED,0
655864.308,0,0,0,1.000,1.000,1.000,-90.00,180.00,-54.00,CLOSED,0
655864.358,0,0,0,1.000,1.000,1.000,-90.00,180.00,-54.00,CLOSED,0
655864.403,0,0,0,1.000,1.000,1.000,-90.00,180.00,-54.00,CLOSED,0
655864.461,0,0,0,1.000,1.000,1.000,-90.00,180.00,-54.00,CLOSED,0
655864.504,0,0,0,1.000,1.000,1.000,-90.00,180.00,-54.00,CLOSED,0
655864.553,0,0,0,1.000,1.000,1.000,-90.00,180.00,-54.00,CLOSED,0
655864.603,0,0,0,1.000,1.000,1.000,-90.00,180.00,-54.00,CLOSED,0
655864.658,0,0,0,1.000,1.000,1.000,-90.00,180.00,-54.00,CLOSED,0
655864.710,0,0,0,1.000,1.000,1.000,-90.00,180.00,-54.00,CLOSED,0
655864.756,0,0,0,1.000,1.000,1.000,-90.00,180.00,-54.00,CLOSED,0
655864.808,0,0,0,1.000,1.000,1.000,-90.00,180.00,-54.00,CLOSED,0
655864.860,0,0,0,1.000,1.000,1.000,-90.00,180.00,-54.00,CLOSED,0
655864.907,0,0,0,1.000,1.000,1.000,-90.00,180.00,-54.00,CLOSED,0
655864.957,0,0,0,1.000,1.000,1.000,-90.00,180.00,-54.00,CLOSED,0
655865.006,0,0,0,1.000,1.000,1.000,-90.00,180.00,-54.00,CLOSED,0
655865.057,0,0,0,1.000,1.000,1.000,-90.00,180.00,-54.00,CLOSED,0
655865.103,0,0,0,1.000,1.000,1.000,-90.00,180.00,-54.00,CLOSED,0
655865.160,0,0,0,1.000,1.000,1.000,-90.00,180.00,-54.00,CLOSED,0
655865.210,0,0,0,1.000,1.000,1.000,-90.00,180.00,-54.00,CLOSED,0
655865.257,0,0,0,1.000,1.000,1.000,-90.00,180.00,-54.00,CLOSED,0
655865.303,0,0,0,1.000,1.000,1.000,-90.00,180.00,-54.00,CLOSED,0
655865.354,0,0,0,1.000,1.000,1.000,-90.00,180.00,-54.00,CLOSED,0
655865.405,0,0,0,1.000,1.000,1.000,-90.00,180.00,-54.00,CLOSED,0
655865.453,0,0,0,1.000,1.000,1.000,-90.00,180.00,-54.00,CLOSED,0
655865.508,0,0,0,1.000,1.000,1.000,-90.00,180.00,-54.00,CLOSED,0
655865.557,0,0,0,1.000,1.000,1.000,-90.00,180.00,-54.00,CLOSED,0
655865.604,0,0,0,1.000,1.000,1.000,-90.00,180.00,-54.00,CLOSED,0
655865.660,0,0,0,1.000,1.000,1.000,-90.00,180.00,-54.00,CLOSED,0
655865.704,0,0,0,1.000,1.000,1.000,-90.00,180.00,-54.00,CLOSED,0
655865.754,0,0,0,1.000,1.000,1.000,-90.00,180.00,-54.00,CLOSED,0
655865.808,0,0,0,1.000,1.000,1.000,-90.00,180.00,-54.00,CLOSED,0
655865.856,0,0,0,1.000,1.000,1.000,-90.00,180.00,-54.00,CLOSED,0
655865.907,0,0,0,1.000,1.000,1.000,-90.00,180.00,-54.00,CLOSED,0
655865.954,0,0,0,1.000,1.000,1.000,-90.00,180.00,-54.00,CLOSED,0
655866.008,0,0,0,1.000,1.000,1.000,-90.00,180.00,-54.00,CLOSED,0
655866.057,0,0,0,1.000,1.000,1.000,-90.00,180.00,-54.00,CLOSED,0
655866.108,0,0,0,1.000,1.000,1.000,-90.00,180.00,-54.00,CLOSED,0
655866.159,0,0,0,1.000,1.000,1.000,-90.00,180.00,-54.00,CLOSED,0
655866.203,0,0,0,1.000,1.000,1.000,-90.00,180.00,-54.00,CLOSED,0
655866.257,0,0,0,1.000,1.000,1.000,-90.00,180.00,-54.00,CLOSED,0
655866.303,0,0,0,1.000,1.000,1.000,-90.00,180.00,-54.00,CLOSED,0
655866.353,0,0,0,1.000,1.000,1.000,-90.00,180.00,-54.00,CLOSED,0
655866.404,0,0,0,1.000,1.000,1.000,-90.00,180.00,-54.00,CLOSED,0
655866.453,0,0,0,1.000,1.000,1.000,-90.00,180.00,-54.00,CLOSED,0
655866.507,0,0,0,1.000,1.000,1.000,-90.00,180.00,-54.00,CLOSED,0
655866.554,0,0,0,1.000,1.000,1.000,-90.00,180.00,-54.00,CLOSED,0
655866.603,0,0,0,1.000,1.000,1.000,-90.00,180.00,-54.00,CLOSED,0
655866.658,0,0,0,1.000,1.000,1.000,-90.00,180.00,-54.00,CLOSED,0
655866.704,0,0,0,1.000,1.000,1.000,-90.00,180.00,-54.00,CLOSED,0
655866.759,0,0,0,1.000,1.000,1.000,-90.00,180.00,-54.00,CLOSED,0
655866.808,0,0,0,1.000,1.000,1.000,-90.00,180.00,-54.00,CLOSED,0
655866.853,0,0,0,1.000,1.000,1.000,-90.00,180.00,-54.00,CLOSED,0
655866.903,0,0,0,1.000,1.000,1.000,-90.00,180.00,-54.00,CLOSED,0
655866.957,0,0,0,1.000,1.000,1.000,-90.00,180.00,-54.00,CLOSED,0
655867.007,0,0,0,1.000,1.000,1.000,-90.00,180.00,-54.00,CLOSED,0
655867.059,0,0,0,1.000,1.000,1.000,-90.00,180.00,-54.00,CLOSED,0
655867.106,0,0,0,1.000,1.000,1.000,-90.00,180.00,-54.00,CLOSED,0
655867.157,0,0,0,1.000,1.000,1.000,-90.00,180.00,-54.00,CLOSED,0
655867.211,0,0,0,1.000,1.000,1.000,-90.00,180.00,-54.00,CLOSED,0
655867.254,0,0,0,1.000,1.000,1.000,-90.00,180.00,-54.00,CLOSED,0
655867.303,0,0,0,1.000,1.000,1.000,-90.00,180.00,-54.00,CLOSED,0
655867.353,0,0,0,1.000,1.000,1.000,-90.00,180.00,-54.00,CLOSED,0
655867.403,0,0,0,1.000,1.000,1.000,-90.00,180.00,-54.00,CLOSED,0
655867.452,0,0,0,1.000,1.000,1.000,-90.00,180.00,-54.00,CLOSED,0
655867.504,0,0,0,1.000,1.000,1.000,-90.00,180.00,-54.00,CLOSED,0
655867.553,0,0,0,1.000,1.000,1.000,-90.00,180.00,-54.00,CLOSED,0
655867.603,0,0,0,1.000,1.000,1.000,-90.00,180.00,-54.00,CLOSED,0
655867.658,0,0,0,1.000,1.000,1.000,-90.00,180.00,-54.00,CLOSED,0
655867.704,0,0,0,1.000,1.000,1.000,-90.00,180.00,-54.00,CLOSED,0
655867.753,0,0,0,1.000,1.000,1.000,-90.00,180.00,-54.00,CLOSED,0
655867.803,0,0,0,1.000,1.000,1.000,-90.00,180.00,-54.00,CLOSED,0
655867.854,0,0,0,1.000,1.000,1.000,-90.00,180.00,-54.00,CLOSED,0
655867.902,0,0,0,1.000,1.000,1.000,-90.00,180.00,-54.00,CLOSED,0
655867.957,0,0,0,1.000,1.000,1.000,-90.00,180.00,-54.00,CLOSED,0
655868.006,0,0,0,1.000,1.000,1.000,-90.00,180.00,-54.00,CLOSED,0
655868.057,0,0,0,1.000,1.000,1.000,-90.00,180.00,-54.00,CLOSED,0
655868.107,0,0,0,1.000,1.000,1.000,-90.00,180.00,-54.00,CLOSED,0
655868.155,0,0,0,1.000,1.000,1.000,-90.00,180.00,-54.00,CLOSED,0
655868.204,0,0,0,1.000,1.000,1.000,-90.00,180.00,-54.00,CLOSED,0
655868.258,0,0,0,1.000,1.000,1.000,-90.00,180.00,-54.00,CLOSED,0
655868.307,0,0,0,1.000,1.000,1.000,-90.00,180.00,-54.00,CLOSED,0
655868.359,0,0,0,1.000,1.000,1.000,-90.00,180.00,-54.00,CLOSED,0
655868.403,0,0,0,1.000,1.000,1.000,-90.00,180.00,-54.00,CLOSED,0
655868.455,0,0,0,1.000,1.000,1.000,-90.00,180.00,-54.00,CLOSED,0
655868.505,0,0,0,1.000,1.000,1.000,-90.00,180.00,-54.00,CLOSED,0
655868.555,0,0,0,1.000,1.000,1.000,-90.00,180.00,-54.00,CLOSED,0
655868.603,0,0,0,1.000,1.000,1.000,-90.00,180.00,-54.00,CLOSED,0
655868.655,0,0,0,1.000,1.000,1.000,-90.00,180.00,-54.00,CLOSED,0
655868.703,0,0,0,1.000,1.000,1.000,-90.00,180.00,-54.00,CLOSED,0
655868.753,0,0,0,1.000,1.000,1.000,-90.00,180.00,-54.00,CLOSED,0
655868.803,0,0,0,1.000,1.000,1.000,-90.00,180.00,-54.00,CLOSED,0
655868.853,0,0,0,1.000,1.000,1.000,-90.00,180.00,-54.00,CLOSED,0
655868.905,0,0,0,1.000,1.000,1.000,-90.00,180.00,-54.00,CLOSED,0
655868.954,0,0,0,1.000,1.000,1.000,-90.00,180.00,-54.00,CLOSED,0
655869.007,0,0,0,1.000,1.000,1.000,-90.00,180.00,-54.00,CLOSED,0
655869.058,0,0,0,1.000,1.000,1.000,-90.00,180.00,-54.00,CLOSED,0
655869.107,0,0,0,1.000,1.000,1.000,-90.00,180.00,-54.00,CLOSED,0
655869.153,0,0,0,1.000,1.000,1.000,-90.00,180.00,-54.00,CLOSED,0
655869.204,0,0,0,1.000,1.000,1.000,-90.00,180.00,-54.00,CLOSED,0
655869.252,0,0,0,1.000,1.000,1.000,-90.00,180.00,-54.00,CLOSED,0
655869.303,0,0,0,1.000,1.000,1.000,-90.00,180.00,-54.00,CLOSED,0
655869.356,0,0,0,1.000,1.000,1.000,-90.00,180.00,-54.00,CLOSED,0
655869.407,0,0,0,1.000,1.000,1.000,-90.00,180.00,-54.00,CLOSED,0
655869.459,0,0,0,1.000,1.000,1.000,-90.00,180.00,-54.00,CLOSED,0
655869.505,0,0,0,1.000,1.000,1.000,-90.00,180.00,-54.00,CLOSED,0
655869.557,0,0,0,1.000,1.000,1.000,-90.00,180.00,-54.00,CLOSED,0
655869.604,0,0,0,1.000,1.000,1.000,-90.00,180.00,-54.00,CLOSED,0
655869.653,0,0,0,1.000,1.000,1.000,-90.00,180.00,-54.00,CLOSED,0
655869.704,0,0,0,1.000,1.000,1.000,-90.00,180.00,-54.00,CLOSED,0
655869.757,0,0,0,1.000,1.000,1.000,-90.00,180.00,-54.00,CLOSED,0
655869.804,0,0,0,1.000,1.000,1.000,-90.00,180.00,-54.00,CLOSED,0
655869.858,0,0,0,1.000,1.000,1.000,-90.00,180.00,-54.00,CLOSED,0
655869.907,0,0,0,1.000,1.000,1.000,-90.00,180.00,-54.00,CLOSED,0
655869.958,0,0,0,1.000,1.000,1.000,-90.00,180.00,-54.00,CLOSED,0
655870.008,0,0,0,1.000,1.000,1.000,-90.00,180.00,-54.00,CLOSED,0
655870.057,0,0,0,1.000,0.999,1.000,-90.00,180.00,-54.00,CLOSED,0
655870.104,0,0,0,1.000,0.998,1.000,-90.00,180.00,-54.00,CLOSED,0
655870.154,0,0,0,1.000,0.994,1.000,-90.00,180.00,-54.00,CLOSED,0
655870.207,0,0,0,1.000,0.973,1.000,-90.00,180.00,-54.00,CLOSED,0
655870.253,0,0,0,1.000,0.706,1.000,-90.00,180.00,-54.00,CLOSED,0
655870.308,0,0,0,1.000,0.835,1.000,-90.00,180.00,-54.00,CLOSED,0
655870.356,0,0,0,1.000,0.947,1.000,-90.00,180.00,-54.00,CLOSED,0
655870.404,0,0,0,1.000,0.962,1.000,-90.00,180.00,-54.00,CLOSED,0
655870.457,0,0,0,1.000,0.954,1.000,-90.00,180.00,-54.00,CLOSED,0
655870.503,0,0,0,1.000,0.886,1.000,-90.00,180.00,-54.00,CLOSED,0
655870.553,0,0,0,1.000,0.583,1.000,-90.00,180.00,-54.00,CLOSED,0
655870.607,0,0,0,1.000,0.745,1.000,-90.00,180.00,-54.00,CLOSED,0
655870.653,0,0,0,1.000,0.909,1.000,-90.00,180.00,-54.00,CLOSED,0
655870.705,0,0,0,1.000,0.961,0.999,-90.00,180.00,-54.00,CLOSED,0
655870.753,0,0,0,1.000,0.986,0.998,-90.00,180.00,-54.00,CLOSED,0
655870.803,0,0,0,1.000,0.994,0.997,-90.00,180.00,-54.00,CLOSED,0
655870.854,0,0,0,1.000,0.996,0.996,-90.00,180.00,-54.00,CLOSED,0
655870.903,0,0,0,1.000,0.997,0.995,-90.00,180.00,-54.00,CLOSED,0
655870.959,0,0,0,1.000,0.998,0.995,-90.00,180.00,-54.00,CLOSED,0
655871.007,0,0,0,1.000,0.998,0.994,-90.00,180.00,-54.00,CLOSED,0
655871.053,0,0,0,1.000,0.998,0.994,-90.00,180.00,-54.00,CLOSED,0
655871.111,0,0,0,1.000,0.999,0.992,-90.00,180.00,-54.00,CLOSED,0
655871.155,0,0,0,1.000,0.999,0.987,-90.00,180.00,-54.00,CLOSED,0
655871.204,0,0,0,1.000,0.999,0.979,-90.00,180.00,-54.00,CLOSED,0
655871.257,0,0,0,1.000,0.999,0.969,-90.00,180.00,-54.00,CLOSED,0
655871.308,0,0,0,1.000,1.000,0.968,-90.00,180.00,-54.00,CLOSED,0
655871.353,0,0,0,1.000,1.000,0.970,-90.00,180.00,-54.00,CLOSED,0
655871.406,0,0,0,1.000,1.000,0.976,-90.00,180.00,-54.00,CLOSED,0
655871.457,0,0,0,1.000,1.000,0.979,-90.00,180.00,-54.00,CLOSED,0
655871.503,0,0,0,1.000,0.999,0.980,-90.00,180.00,-54.00,CLOSED,0
655871.557,0,0,0,1.000,0.999,0.982,-90.00,180.00,-54.00,CLOSED,0
655871.606,0,0,0,1.000,0.998,0.983,-90.00,180.00,-54.00,CLOSED,0
655871.659,0,0,0,1.000,0.994,0.979,-90.00,180.00,-54.00,CLOSED,0
655871.706,0,0,0,1.000,0.980,0.973,-90.00,180.00,-54.00,CLOSED,0
655871.755,0,0,0,1.000,0.943,0.951,-90.00,180.00,-54.00,CLOSED,0
655871.803,0,0,0,1.000,0.888,0.924,-90.00,180.00,-54.00,CLOSED,0
655871.856,0,0,0,1.000,0.865,0.897,-90.00,180.00,-54.00,CLOSED,0
655871.904,0,0,0,1.000,0.869,0.887,-90.00,180.00,-54.00,CLOSED,0
655871.957,0,0,0,1.000,0.854,0.901,-90.00,180.00,-54.00,CLOSED,0
655872.007,0,0,0,1.000,0.831,0.929,-90.00,180.00,-54.00,CLOSED,0
655872.053,0,0,0,1.000,0.825,0.960,-90.00,180.00,-54.00,CLOSED,0
655872.103,0,0,0,1.000,0.859,0.977,-90.00,180.00,-54.00,CLOSED,0
655872.157,0,0,0,1.000,0.906,0.988,-90.00,180.00,-54.00,CLOSED,0
655872.207,0,0,0,1.000,0.942,0.992,-90.00,180.00,-54.00,CLOSED,0
655872.257,0,0,0,1.000,0.969,0.995,-90.00,180.00,-54.00,CLOSED,0
655872.304,0,0,0,1.000,0.981,0.997,-90.00,180.00,-54.00,CLOSED,0
655872.355,0,0,0,1.000,0.989,0.998,-90.00,180.00,-54.00,CLOSED,0
655872.408,0,0,0,1.000,0.992,0.998,-90.00,180.00,-54.00,CLOSED,0
655872.457,0,0,0,1.000,0.995,0.998,-90.00,180.00,-54.00,CLOSED,0
655872.507,0,0,0,1.000,0.996,0.998,-90.00,180.00,-54.00,CLOSED,0
655872.554,0,0,0,1.000,0.997,0.998,-90.00,180.00,-54.00,CLOSED,0
655872.605,0,0,0,1.000,0.996,0.997,-90.00,180.00,-54.00,CLOSED,0
655872.659,0,0,0,1.000,0.995,0.996,-90.00,180.00,-54.00,CLOSED,0
655872.703,0,0,0,1.000,0.989,0.994,-90.00,180.00,-54.00,CLOSED,0
655872.753,0,0,0,1.000,0.962,0.989,-90.00,180.00,-54.00,CLOSED,0
655872.803,0,0,0,1.000,0.843,0.982,-90.00,180.00,-54.00,CLOSED,0
655872.853,0,0,0,1.000,0.502,0.973,-90.00,180.00,-54.00,CLOSED,0
655872.903,0,0,0,1.000,0.804,0.970,-90.00,180.00,-54.00,CLOSED,0
655872.953,0,0,0,1.000,0.892,0.972,-90.00,180.00,-54.00,CLOSED,0
655873.002,0,0,0,1.000,0.892,0.979,-90.00,180.00,-54.00,CLOSED,0
655873.053,0,0,0,1.000,0.818,0.984,-90.00,180.00,-54.00,CLOSED,0
655873.103,0,0,0,1.000,0.657,0.989,-90.00,180.00,-54.00,CLOSED,0
655873.153,0,0,0,1.000,0.515,0.990,-90.00,180.00,-54.00,CLOSED,0
655873.204,0,0,0,1.000,0.650,0.990,-90.00,180.00,-54.00,CLOSED,0
655873.256,0,0,0,1.000,0.754,0.989,-90.00,180.00,-54.00,CLOSED,0
655873.302,0,0,0,1.000,0.770,0.988,-90.00,180.00,-54.00,CLOSED,0
655873.353,0,0,0,1.000,0.735,0.985,-90.00,180.00,-54.00,CLOSED,0
655873.403,0,0,0,1.000,0.698,0.983,-90.00,180.00,-54.00,CLOSED,0
655873.453,0,0,0,1.000,0.645,0.984,-90.00,180.00,-54.00,CLOSED,0
655873.505,0,0,0,1.000,0.608,0.985,-90.00,180.00,-54.00,CLOSED,0
655873.552,0,0,0,1.000,0.618,0.989,-90.00,180.00,-54.00,CLOSED,0
655873.608,0,0,0,1.000,0.718,0.990,-90.00,180.00,-54.00,CLOSED,0
655873.657,0,0,0,1.000,0.775,0.992,-90.00,180.00,-54.00,CLOSED,0
655873.706,0,0,0,1.000,0.844,0.990,-90.00,180.00,-54.00,CLOSED,0
655873.757,0,0,0,1.000,0.898,0.991,-90.00,180.00,-54.00,CLOSED,0
655873.803,0,0,0,1.000,0.915,0.989,-90.00,180.00,-54.00,CLOSED,0
655873.854,0,0,0,1.000,0.913,0.986,-90.00,180.00,-54.00,CLOSED,0
655873.903,0,0,0,1.000,0.908,0.983,-90.00,180.00,-54.00,CLOSED,0
655873.953,0,0,0,1.000,0.883,0.972,-90.00,180.00,-54.00,CLOSED,0
655874.003,0,0,0,1.000,0.875,0.955,-90.00,180.00,-54.00,CLOSED,0
655874.053,0,0,0,1.000,0.937,0.949,-90.00,180.00,-54.00,CLOSED,0
655874.108,0,0,0,1.000,0.978,0.950,-90.00,180.00,-54.00,CLOSED,0
655874.154,0,0,0,1.000,0.992,0.962,-90.00,180.00,-54.00,CLOSED,0
655874.203,0,0,0,1.000,0.996,0.970,-90.00,180.00,-54.00,CLOSED,0
655874.256,0,0,0,1.000,0.997,0.974,-90.00,180.00,-54.00,CLOSED,0
655874.304,0,0,0,1.000,0.998,0.978,-90.00,180.00,-54.00,CLOSED,0
655874.353,0,0,0,1.000,0.998,0.979,-90.00,180.00,-54.00,CLOSED,0
655874.403,0,0,0,1.000,0.997,0.977,-90.00,180.00,-54.00,CLOSED,0
655874.454,0,0,0,1.000,0.994,0.975,-90.00,180.00,-54.00,CLOSED,0
655874.504,0,0,0,1.000,0.987,0.974,-90.00,180.00,-54.00,CLOSED,0
655874.553,0,0,0,1.000,0.955,0.970,-90.00,180.00,-54.00,CLOSED,0
655874.602,0,0,0,1.000,0.852,0.962,-90.00,180.00,-54.00,CLOSED,0
655874.656,0,0,0,1.000,0.690,0.959,-90.00,180.00,-54.00,CLOSED,0
655874.707,0,0,0,1.000,0.531,0.957,-90.00,180.00,-54.00,CLOSED,0
655874.753,0,0,0,1.000,0.596,0.954,-90.00,180.00,-54.00,CLOSED,0
655874.807,0,0,0,1.000,0.509,0.960,-90.00,180.00,-54.00,CLOSED,0
655874.858,0,0,0,1.000,0.617,0.963,-90.00,180.00,-54.00,CLOSED,0
655874.904,0,0,0,1.000,0.725,0.964,-90.00,180.00,-54.00,CLOSED,0
655874.953,0,0,0,1.000,0.760,0.968,-90.00,180.00,-54.00,CLOSED,0
655875.007,0,0,0,1.000,0.755,0.971,-90.00,180.00,-54.00,CLOSED,0
655875.053,0,0,0,1.000,0.711,0.976,-90.00,180.00,-54.00,CLOSED,0
655875.102,0,0,0,1.000,0.637,0.980,-90.00,180.00,-54.00,CLOSED,0
655875.154,0,0,0,1.000,0.555,0.980,-90.00,180.00,-54.00,CLOSED,0
655875.208,0,0,0,1.000,0.519,0.983,-90.00,180.00,-54.00,CLOSED,0
655875.253,0,0,0,1.000,0.550,0.983,-90.00,180.00,-54.00,CLOSED,0
655875.303,0,0,0,1.000,0.720,0.981,-90.00,180.00,-54.00,CLOSED,0
655875.353,0,0,0,1.000,0.863,0.972,-90.00,180.00,-54.00,CLOSED,0
655875.407,0,0,0,1.000,0.956,0.953,-90.00,180.00,-54.00,CLOSED,0
655875.458,0,0,0,1.000,0.980,0.932,-90.00,180.00,-54.00,CLOSED,0
655875.506,0,0,0,1.000,0.987,0.903,-90.00,180.00,-54.00,CLOSED,0
655875.553,0,0,0,1.000,0.988,0.892,-90.00,180.00,-54.00,CLOSED,0
655875.604,0,0,0,1.000,0.986,0.895,-90.00,180.00,-54.00,CLOSED,0
655875.654,0,0,0,1.000,0.977,0.924,-90.00,180.00,-54.00,CLOSED,0
655875.708,0,0,0,1.000,0.950,0.968,-90.00,180.00,-54.00,CLOSED,0
655875.754,0,0,0,1.000,0.926,0.987,-90.00,180.00,-54.00,CLOSED,0
655875.805,0,0,0,1.000,0.941,0.996,-90.00,180.00,-54.00,CLOSED,0
655875.854,0,0,0,1.000,0.975,0.999,-90.00,180.00,-54.00,CLOSED,0
655875.909,0,0,0,1.000,0.987,0.999,-90.00,180.00,-54.00,CLOSED,0
655875.960,0,0,0,1.000,0.995,0.999,-90.00,180.00,-54.00,CLOSED,0
655876.008,0,0,0,1.000,0.999,0.999,-90.00,180.00,-54.00,CLOSED,0
655876.053,0,0,0,1.000,1.000,0.999,-90.00,180.00,-54.00,CLOSED,0
655876.103,0,0,0,1.000,1.000,0.999,-90.00,180.00,-54.00,CLOSED,0
655876.154,0,0,0,1.000,1.000,0.999,-90.00,180.00,-54.00,CLOSED,0
655876.202,0,0,0,1.000,1.000,1.000,-90.00,180.00,-54.00,CLOSED,0
655876.254,0,0,0,1.000,1.000,1.000,-90.00,180.00,-54.00,CLOSED,0
655876.304,0,0,0,1.000,1.000,1.000,-90.00,180.00,-54.00,CLOSED,0
655876.352,0,0,0,1.000,1.000,1.000,-90.00,180.00,-54.00,CLOSED,0
655876.404,0,0,0,1.000,0.998,1.000,-90.00,180.00,-54.00,CLOSED,0
655876.459,0,0,0,0.999,0.998,1.000,-90.00,180.00,-54.00,CLOSED,0
655876.503,0,0,0,0.999,0.998,1.000,-90.00,180.00,-54.00,CLOSED,0
655876.554,0,0,0,0.999,0.999,1.000,-90.00,180.00,-54.00,CLOSED,0
655876.602,0,0,0,1.000,1.000,1.000,-90.00,180.00,-54.00,CLOSED,0
655876.654,0,0,0,1.000,1.000,1.000,-90.00,180.00,-54.00,CLOSED,0
655876.703,0,0,0,1.000,1.000,1.000,-90.00,180.00,-54.00,CLOSED,0
655876.753,0,0,0,1.000,1.000,1.000,-90.00,180.00,-54.00,CLOSED,0
655876.803,0,0,0,1.000,1.000,1.000,-90.00,180.00,-54.00,CLOSED,0
655876.852,0,0,0,1.000,1.000,1.000,-90.00,180.00,-54.00,CLOSED,0
655876.902,0,0,0,1.000,1.000,1.000,-90.00,180.00,-54.00,CLOSED,0
655876.957,0,0,0,1.000,1.000,1.000,-90.00,180.00,-54.00,CLOSED,0
655877.003,0,0,0,1.000,1.000,1.000,-90.00,180.00,-54.00,CLOSED,0
655877.053,0,0,0,1.000,1.000,1.000,-90.00,180.00,-54.00,CLOSED,0
655877.103,0,0,0,1.000,1.000,1.000,-90.00,180.00,-54.00,CLOSED,0
655877.154,0,0,0,1.000,1.000,1.000,-90.00,180.00,-54.00,CLOSED,0
655877.202,0,0,0,1.000,1.000,1.000,-90.00,180.00,-54.00,CLOSED,0
655877.255,0,0,0,1.000,1.000,1.000,-90.00,180.00,-54.00,CLOSED,0
655877.303,0,0,0,1.000,1.000,1.000,-90.00,180.00,-54.00,CLOSED,0
655877.353,0,0,0,1.000,1.000,1.000,-90.00,180.00,-54.00,CLOSED,0
655877.403,0,0,0,1.000,1.000,1.000,-90.00,180.00,-54.00,CLOSED,0
655877.456,0,0,0,1.000,1.000,1.000,-90.00,180.00,-54.00,CLOSED,0
655877.503,0,0,0,1.000,1.000,1.000,-90.00,180.00,-54.00,CLOSED,0
655877.553,0,0,0,1.000,1.000,1.000,-90.00,180.00,-54.00,CLOSED,0
655877.605,0,0,0,1.000,1.000,1.000,-90.00,180.00,-54.00,CLOSED,0
655877.657,0,0,0,1.000,1.000,1.000,-90.00,180.00,-54.00,CLOSED,0
655877.703,0,0,0,1.000,1.000,1.000,-90.00,180.00,-54.00,CLOSED,0
655877.753,0,0,0,1.000,1.000,1.000,-90.00,180.00,-54.00,CLOSED,0
655877.804,0,0,0,1.000,1.000,1.000,-90.00,180.00,-54.00,CLOSED,0
655877.853,0,0,0,1.000,1.000,1.000,-90.00,180.00,-54.00,CLOSED,0
655877.903,0,0,0,1.000,1.000,1.000,-90.00,180.00,-54.00,CLOSED,0
655877.953,0,0,0,1.000,1.000,1.000,-90.00,180.00,-54.00,CLOSED,0
655878.007,0,0,0,1.000,1.000,1.000,-90.00,180.00,-54.00,CLOSED,0
655878.057,0,0,0,1.000,1.000,1.000,-90.00,180.00,-54.00,CLOSED,0
655878.104,0,0,0,1.000,1.000,1.000,-90.00,180.00,-54.00,CLOSED,0
655878.153,0,0,0,1.000,1.000,1.000,-90.00,180.00,-54.00,CLOSED,0
655878.204,0,0,0,1.000,1.000,1.000,-90.00,180.00,-54.00,CLOSED,0
655878.255,0,0,0,1.000,1.000,1.000,-90.00,180.00,-54.00,CLOSED,0
655878.307,0,0,0,1.000,1.000,1.000,-90.00,180.00,-54.00,CLOSED,0
655878.353,0,0,0,1.000,1.000,1.000,-90.00,180.00,-54.00,CLOSED,0
655878.403,0,0,0,1.000,1.000,1.000,-90.00,180.00,-54.00,CLOSED,0
655878.453,0,0,0,1.000,1.000,1.000,-90.00,180.00,-54.00,CLOSED,0
655878.504,0,0,0,1.000,1.000,1.000,-90.00,180.00,-54.00,CLOSED,0
655878.553,0,0,0,1.000,1.000,1.000,-90.00,180.00,-54.00,CLOSED,0
655878.603,0,0,0,1.000,1.000,1.000,-90.00,180.00,-54.00,CLOSED,0
655878.653,0,0,0,1.000,1.000,1.000,-90.00,180.00,-54.00,CLOSED,0
655878.703,0,0,0,1.000,1.000,1.000,-90.00,180.00,-54.00,CLOSED,0
655878.753,0,0,0,1.000,1.000,1.000,-90.00,180.00,-54.00,CLOSED,0
655878.803,0,0,0,1.000,1.000,1.000,-90.00,180.00,-54.00,CLOSED,0
655878.854,0,0,0,1.000,1.000,1.000,-90.00,180.00,-54.00,CLOSED,0
655878.903,0,0,0,1.000,1.000,1.000,-90.00,180.00,-54.00,CLOSED,0
655878.952,0,0,0,1.000,1.000,1.000,-90.00,180.00,-54.00,CLOSED,0
655879.005,0,0,0,1.000,1.000,1.000,-90.00,180.00,-54.00,CLOSED,0
655879.054,0,0,0,1.000,1.000,1.000,-90.00,180.00,-54.00,CLOSED,0
655879.108,0,0,0,1.000,1.000,1.000,-90.00,180.00,-54.00,CLOSED,0
655879.153,0,0,0,1.000,1.000,1.000,-90.00,180.00,-54.00,CLOSED,0
655879.204,0,0,0,1.000,1.000,1.000,-90.00,180.00,-54.00,CLOSED,0
655879.254,0,0,0,1.000,1.000,1.000,-90.00,180.00,-54.00,CLOSED,0
655879.303,0,0,0,1.000,1.000,1.000,-90.00,180.00,-54.00,CLOSED,0
655879.358,0,0,0,1.000,1.000,1.000,-90.00,180.00,-54.00,CLOSED,0
655879.405,0,0,0,1.000,1.000,1.000,-90.00,180.00,-54.00,CLOSED,0
655879.453,0,0,0,1.000,1.000,1.000,-90.00,180.00,-54.00,CLOSED,0
655879.504,0,0,0,1.000,1.000,1.000,-90.00,180.00,-54.00,CLOSED,0
655879.553,0,0,0,1.000,1.000,1.000,-90.00,180.00,-54.00,CLOSED,0
655879.603,0,0,0,1.000,1.000,1.000,-90.00,180.00,-54.00,CLOSED,0
655879.661,0,0,0,1.000,1.000,1.000,-90.00,180.00,-54.00,CLOSED,0
655879.703,0,0,0,1.000,1.000,1.000,-90.00,180.00,-54.00,CLOSED,0
655879.753,0,0,0,1.000,1.000,1.000,-90.00,180.00,-54.00,CLOSED,0
655879.803,0,0,0,1.000,1.000,1.000,-90.00,180.00,-54.00,CLOSED,0
655879.855,0,0,0,1.000,1.000,1.000,-90.00,180.00,-54.00,CLOSED,0
655879.904,0,0,0,1.000,1.000,1.000,-90.00,180.00,-54.00,CLOSED,0
655879.961,0,0,0,1.000,1.000,1.000,-90.00,180.00,-54.00,CLOSED,0
655880.004,0,0,0,1.000,1.000,1.000,-90.00,180.00,-54.00,CLOSED,0
655880.057,0,0,0,1.000,1.000,1.000,-90.00,180.00,-54.00,CLOSED,0
655880.104,0,0,0,1.000,1.000,1.000,-90.00,180.00,-54.00,CLOSED,0
655880.154,0,0,0,1.000,1.000,1.000,-90.00,180.00,-54.00,CLOSED,0
655880.203,0,0,0,1.000,1.000,1.000,-90.00,180.00,-54.00,CLOSED,0
655880.254,0,0,0,1.000,1.000,1.000,-90.00,180.00,-54.00,CLOSED,0
655880.304,0,0,0,1.000,1.000,1.000,-90.00,180.00,-54.00,CLOSED,0
655880.353,0,0,0,1.000,1.000,1.000,-90.00,180.00,-54.00,CLOSED,0
655880.403,0,0,0,1.000,1.000,1.000,-90.00,180.00,-54.00,CLOSED,0
655880.453,0,0,0,1.000,1.000,1.000,-90.00,180.00,-54.00,CLOSED,0
655880.503,0,0,0,1.000,1.000,1.000,-90.00,180.00,-54.00,CLOSED,0
655880.554,0,0,0,1.000,1.000,1.000,-90.00,180.00,-54.00,CLOSED,0
655880.603,0,0,0,1.000,1.000,1.000,-90.00,180.00,-54.00,CLOSED,0
655880.653,0,0,0,1.000,1.000,1.000,-90.00,180.00,-54.00,CLOSED,0
655880.703,0,0,0,1.000,1.000,1.000,-90.00,180.00,-54.00,CLOSED,0
655880.753,0,0,0,1.000,1.000,1.000,-90.00,180.00,-54.00,CLOSED,0
655880.803,0,0,0,1.000,1.000,1.000,-90.00,180.00,-54.00,CLOSED,0
655880.853,0,0,0,1.000,1.000,1.000,-90.00,180.00,-54.00,CLOSED,0
655880.903,0,0,0,1.000,1.000,1.000,-90.00,180.00,-54.00,CLOSED,0
655880.956,0,0,0,1.000,1.000,1.000,-90.00,180.00,-54.00,CLOSED,0
655881.003,0,0,0,1.000,1.000,1.000,-90.00,180.00,-54.00,CLOSED,0
655881.053,0,0,0,1.000,1.000,1.000,-90.00,180.00,-54.00,CLOSED,0
655881.104,0,0,0,1.000,1.000,1.000,-90.00,180.00,-54.00,CLOSED,0
655881.159,0,0,0,1.000,1.000,1.000,-90.00,180.00,-54.00,CLOSED,0
655881.204,0,0,0,1.000,1.000,1.000,-90.00,180.00,-54.00,CLOSED,0
655881.252,0,0,0,1.000,1.000,1.000,-90.00,180.00,-54.00,CLOSED,0
655881.303,0,0,0,1.000,1.000,1.000,-90.00,180.00,-54.00,CLOSED,0
655881.359,0,0,0,1.000,1.000,1.000,-90.00,180.00,-54.00,CLOSED,0
655881.409,0,0,0,1.000,1.000,1.000,-90.00,180.00,-54.00,CLOSED,0
655881.458,0,0,0,1.000,1.000,1.000,-90.00,180.00,-54.00,CLOSED,0
655881.507,0,0,0,1.000,1.000,1.000,-90.00,180.00,-54.00,CLOSED,0
655881.558,0,0,0,1.000,1.000,1.000,-90.00,180.00,-54.00,CLOSED,0
655881.603,0,0,0,1.000,1.000,1.000,-90.00,180.00,-54.00,CLOSED,0
655881.653,0,0,0,1.000,1.000,1.000,-90.00,180.00,-54.00,CLOSED,0
655881.703,0,0,0,1.000,1.000,1.000,-90.00,180.00,-54.00,CLOSED,0
655881.757,0,0,0,1.000,1.000,1.000,-90.00,180.00,-54.00,CLOSED,0
655881.803,0,0,0,1.000,1.000,1.000,-90.00,180.00,-54.00,CLOSED,0
655881.853,0,0,0,1.000,1.000,1.000,-90.00,180.00,-54.00,CLOSED,0
655881.909,0,0,0,1.000,1.000,1.000,-90.00,180.00,-54.00,CLOSED,0
655881.957,0,0,0,1.000,1.000,1.000,-90.00,180.00,-54.00,CLOSED,0
655882.003,0,0,0,1.000,1.000,1.000,-90.00,180.00,-54.00,CLOSED,0
655882.053,0,0,0,1.000,1.000,1.000,-90.00,180.00,-54.00,CLOSED,0
655882.103,0,0,0,1.000,1.000,1.000,-90.00,180.00,-54.00,CLOSED,0
655882.154,0,0,0,1.000,1.000,1.000,-90.00,180.00,-54.00,CLOSED,0
655882.204,0,0,0,1.000,1.000,1.000,-90.00,180.00,-54.00,CLOSED,0
655882.252,0,0,0,1.000,1.000,1.000,-90.00,180.00,-54.00,CLOSED,0
655882.303,0,0,0,1.000,1.000,1.000,-90.00,180.00,-54.00,CLOSED,0
655882.357,0,0,0,1.000,1.000,1.000,-90.00,180.00,-54.00,CLOSED,0
655882.403,0,0,0,1.000,1.000,1.000,-90.00,180.00,-54.00,CLOSED,0
655882.457,0,0,0,1.000,1.000,1.000,-90.00,180.00,-54.00,CLOSED,0
655882.503,0,0,0,1.000,1.000,1.000,-90.00,180.00,-54.00,CLOSED,0
655882.553,0,0,0,1.000,1.000,1.000,-90.00,180.00,-54.00,CLOSED,0
655882.604,0,0,0,1.000,1.000,1.000,-90.00,180.00,-54.00,CLOSED,0
655882.653,0,0,0,1.000,1.000,1.000,-90.00,180.00,-54.00,CLOSED,0
655882.708,0,0,0,1.000,1.000,1.000,-90.00,180.00,-54.00,CLOSED,0
655882.753,0,0,0,1.000,1.000,1.000,-90.00,180.00,-54.00,CLOSED,0
655882.807,0,0,0,1.000,1.000,1.000,-90.00,180.00,-54.00,CLOSED,0
655882.857,0,0,0,1.000,1.000,1.000,-90.00,180.00,-54.00,CLOSED,0
655882.907,0,0,0,1.000,1.000,1.000,-90.00,180.00,-54.00,CLOSED,0
655882.958,0,0,0,1.000,1.000,1.000,-90.00,180.00,-54.00,CLOSED,0
655883.007,0,0,0,1.000,1.000,1.000,-90.00,180.00,-54.00,CLOSED,0
655883.053,0,0,0,1.000,1.000,1.000,-90.00,180.00,-54.00,CLOSED,0
655883.107,0,0,0,1.000,1.000,1.000,-90.00,180.00,-54.00,CLOSED,0
655883.153,0,0,0,1.000,1.000,1.000,-90.00,180.00,-54.00,CLOSED,0
655883.203,0,0,0,1.000,1.000,1.000,-90.00,180.00,-54.00,CLOSED,0
655883.253,0,0,0,1.000,1.000,1.000,-90.00,180.00,-54.00,CLOSED,0
655883.304,0,0,0,1.000,1.000,1.000,-90.00,180.00,-54.00,CLOSED,0
655883.352,0,0,0,1.000,1.000,1.000,-90.00,180.00,-54.00,CLOSED,0
655883.403,0,0,0,1.000,1.000,1.000,-90.00,180.00,-54.00,CLOSED,0
655883.456,0,0,0,1.000,1.000,1.000,-90.00,180.00,-54.00,CLOSED,0
655883.503,0,0,0,1.000,1.000,1.000,-90.00,180.00,-54.00,CLOSED,0
655883.556,0,0,0,1.000,1.000,1.000,-90.00,180.00,-54.00,CLOSED,0
655883.604,0,0,0,0.999,1.000,1.000,-90.00,180.00,-54.00,CLOSED,0
655883.658,0,0,0,0.992,1.000,1.000,-90.00,180.00,-54.00,CLOSED,0
655883.703,0,0,0,0.991,1.000,1.000,-90.00,180.00,-54.00,CLOSED,0
655883.753,0,0,0,0.997,1.000,1.000,-90.00,180.00,-54.00,CLOSED,0
655883.803,0,0,0,0.992,1.000,1.000,-90.00,180.00,-54.00,CLOSED,0
655883.853,0,0,0,0.989,1.000,1.000,-90.00,180.00,-54.00,CLOSED,0
655883.910,0,0,0,0.995,1.000,1.000,-90.00,180.00,-54.00,CLOSED,0
655883.953,0,0,0,0.987,1.000,1.000,-90.00,180.00,-54.00,CLOSED,0
655884.005,0,0,0,0.986,1.000,1.000,-90.00,180.00,-54.00,CLOSED,0
655884.056,0,0,0,0.989,1.000,1.000,-90.00,180.00,-54.00,CLOSED,0
655884.104,0,0,0,0.998,0.999,1.000,-90.00,180.00,-54.00,CLOSED,0
655884.153,0,0,0,0.999,0.950,1.000,-90.00,180.00,-54.00,CLOSED,0
655884.208,0,0,0,0.999,0.765,1.000,-90.00,180.00,-54.00,CLOSED,0
655884.253,0,0,0,0.995,0.989,1.000,-90.00,180.00,-54.00,CLOSED,0
655884.302,0,0,0,0.985,0.999,1.000,-90.00,180.00,-54.00,CLOSED,0
655884.352,0,0,0,0.989,1.000,1.000,-90.00,180.00,-54.00,CLOSED,0
655884.405,0,0,0,0.994,1.000,1.000,-90.00,180.00,-54.00,CLOSED,0
655884.458,0,0,0,0.997,1.000,1.000,-90.00,180.00,-54.00,CLOSED,0
655884.502,0,0,0,0.999,1.000,1.000,-90.00,180.00,-54.00,CLOSED,0
655884.553,0,0,0,0.999,1.000,1.000,-90.00,180.00,-54.00,CLOSED,0
655884.605,0,1,0,0.996,1.000,1.000,-90.00,90.00,-54.00,CLOSED,1
655884.660,0,1,0,0.999,1.000,1.000,-90.00,90.00,-54.00,CLOSED,0
655884.707,0,1,0,1.000,1.000,1.000,-90.00,90.00,-54.00,CLOSED,0
655884.758,0,1,0,1.000,1.000,1.000,-90.00,90.00,-54.00,CLOSED,0
655884.810,0,1,0,1.000,1.000,0.999,-90.00,90.00,-54.00,CLOSED,0
655884.853,0,1,0,1.000,1.000,0.998,-90.00,90.00,-54.00,CLOSED,0
655884.904,0,1,0,1.000,1.000,0.996,-90.00,90.00,-54.00,CLOSED,0
655884.954,0,1,0,1.000,1.000,0.994,-90.00,90.00,-54.00,CLOSED,0
655885.006,0,1,0,1.000,1.000,0.993,-90.00,90.00,-54.00,CLOSED,0
655885.053,0,1,0,1.000,1.000,0.992,-90.00,90.00,-54.00,CLOSED,0
655885.103,0,1,0,1.000,1.000,0.990,-90.00,90.00,-54.00,CLOSED,0
655885.153,0,1,0,1.000,1.000,0.988,-90.00,90.00,-54.00,CLOSED,0
655885.203,0,1,0,1.000,1.000,0.987,-90.00,90.00,-54.00,CLOSED,0
655885.257,0,1,0,1.000,1.000,0.986,-90.00,90.00,-54.00,CLOSED,0
655885.303,0,1,0,1.000,1.000,0.986,-90.00,90.00,-54.00,CLOSED,0
655885.353,0,1,0,1.000,1.000,0.989,-90.00,90.00,-54.00,CLOSED,0
655885.403,0,1,0,1.000,1.000,0.991,-90.00,90.00,-54.00,CLOSED,0
655885.454,0,1,0,1.000,1.000,0.993,-90.00,90.00,-54.00,CLOSED,0
655885.508,0,1,0,1.000,0.999,0.994,-90.00,90.00,-54.00,CLOSED,0
655885.556,0,1,0,1.000,0.999,0.994,-90.00,90.00,-54.00,CLOSED,0
655885.607,0,1,0,1.000,0.999,0.994,-90.00,90.00,-54.00,CLOSED,0
655885.653,0,1,0,1.000,0.999,0.994,-90.00,90.00,-54.00,CLOSED,0
655885.707,0,1,0,1.000,0.999,0.993,-90.00,90.00,-54.00,CLOSED,0
655885.753,0,1,0,1.000,0.999,0.993,-90.00,90.00,-54.00,CLOSED,0
655885.803,0,1,0,1.000,0.999,0.991,-90.00,90.00,-54.00,CLOSED,0
655885.853,0,1,0,1.000,0.999,0.989,-90.00,90.00,-54.00,CLOSED,0
655885.902,0,1,0,1.000,1.000,0.989,-90.00,90.00,-54.00,CLOSED,0
655885.953,0,1,0,1.000,1.000,0.988,-90.00,90.00,-54.00,CLOSED,0
655886.003,0,1,0,1.000,1.000,0.991,-90.00,90.00,-54.00,CLOSED,0
655886.059,0,1,0,1.000,1.000,0.995,-90.00,90.00,-54.00,CLOSED,0
655886.103,0,1,0,1.000,1.000,0.997,-90.00,90.00,-54.00,CLOSED,0
655886.159,0,1,0,1.000,1.000,0.998,-90.00,90.00,-54.00,CLOSED,0
655886.202,0,1,0,1.000,1.000,0.999,-90.00,90.00,-54.00,CLOSED,0
655886.253,0,1,0,1.000,1.000,0.999,-90.00,90.00,-54.00,CLOSED,0
655886.303,0,1,0,1.000,1.000,0.999,-90.00,90.00,-54.00,CLOSED,0
655886.353,0,1,0,1.000,1.000,0.999,-90.00,90.00,-54.00,CLOSED,0
655886.404,0,1,0,1.000,1.000,0.999,-90.00,90.00,-54.00,CLOSED,0
655886.455,0,1,0,1.000,1.000,0.998,-90.00,90.00,-54.00,CLOSED,0
655886.505,0,1,0,1.000,1.000,0.997,-90.00,90.00,-54.00,CLOSED,0
655886.553,0,1,0,1.000,1.000,0.994,-90.00,90.00,-54.00,CLOSED,0
655886.602,0,1,0,1.000,0.999,0.988,-90.00,90.00,-54.00,CLOSED,0
655886.652,0,1,0,1.000,0.999,0.982,-90.00,90.00,-54.00,CLOSED,0
655886.703,0,1,0,1.000,0.998,0.985,-90.00,90.00,-54.00,CLOSED,0
655886.753,0,1,0,1.000,0.997,0.991,-90.00,90.00,-54.00,CLOSED,0
655886.802,0,1,0,1.000,0.997,0.995,-90.00,90.00,-54.00,CLOSED,0
655886.853,0,1,0,1.000,0.996,0.997,-90.00,90.00,-54.00,CLOSED,0
655886.903,0,1,0,1.000,0.995,0.998,-90.00,90.00,-54.00,CLOSED,0
655886.953,0,1,0,1.000,0.996,0.999,-90.00,90.00,-54.00,CLOSED,0
655887.002,0,1,0,1.000,0.997,0.998,-90.00,90.00,-54.00,CLOSED,0
655887.058,0,1,0,1.000,0.997,0.998,-90.00,90.00,-54.00,CLOSED,0
655887.103,0,1,0,1.000,0.998,0.997,-90.00,90.00,-54.00,CLOSED,0
655887.153,0,1,0,1.000,0.998,0.994,-90.00,90.00,-54.00,CLOSED,0
655887.203,0,1,0,1.000,0.999,0.988,-90.00,90.00,-54.00,CLOSED,0
655887.254,0,1,0,1.000,0.999,0.979,-90.00,90.00,-54.00,CLOSED,0
655887.303,0,1,0,1.000,0.999,0.976,-90.00,90.00,-54.00,CLOSED,0
655887.353,0,1,0,1.000,0.999,0.981,-90.00,90.00,-54.00,CLOSED,0
655887.403,0,1,0,1.000,0.999,0.984,-90.00,90.00,-54.00,CLOSED,0
655887.453,0,1,0,1.000,0.998,0.988,-90.00,90.00,-54.00,CLOSED,0
655887.503,0,1,0,1.000,0.998,0.993,-90.00,90.00,-54.00,CLOSED,0
655887.553,0,1,0,1.000,0.998,0.995,-90.00,90.00,-54.00,CLOSED,0
655887.606,0,1,0,1.000,0.998,0.997,-90.00,90.00,-54.00,CLOSED,0
655887.653,0,1,0,1.000,0.999,0.998,-90.00,90.00,-54.00,CLOSED,0
655887.703,0,1,0,1.000,0.999,0.998,-90.00,90.00,-54.00,CLOSED,0
655887.753,0,1,0,1.000,0.999,0.999,-90.00,90.00,-54.00,CLOSED,0
655887.804,0,1,0,1.000,0.999,0.999,-90.00,90.00,-54.00,CLOSED,0
655887.854,0,1,0,1.000,1.000,0.999,-90.00,90.00,-54.00,CLOSED,0
655887.903,0,1,0,1.000,1.000,0.998,-90.00,90.00,-54.00,CLOSED,0
655887.953,0,1,0,1.000,1.000,0.998,-90.00,90.00,-54.00,CLOSED,0
655888.002,0,1,0,1.000,1.000,0.998,-90.00,90.00,-54.00,CLOSED,0
655888.053,0,1,0,1.000,1.000,0.999,-90.00,90.00,-54.00,CLOSED,0
655888.103,0,1,0,1.000,1.000,0.999,-90.00,90.00,-54.00,CLOSED,0
655888.153,0,1,0,1.000,1.000,1.000,-90.00,90.00,-54.00,CLOSED,0
655888.203,0,1,0,1.000,1.000,1.000,-90.00,90.00,-54.00,CLOSED,0
655888.254,0,1,0,1.000,1.000,1.000,-90.00,90.00,-54.00,CLOSED,0
655888.303,0,1,0,1.000,1.000,1.000,-90.00,90.00,-54.00,CLOSED,0
655888.358,0,1,0,1.000,1.000,1.000,-90.00,90.00,-54.00,CLOSED,0
655888.409,0,1,0,1.000,1.000,1.000,-90.00,90.00,-54.00,CLOSED,0
655888.457,0,1,0,1.000,1.000,1.000,-90.00,90.00,-54.00,CLOSED,0
655888.503,0,1,0,1.000,1.000,1.000,-90.00,90.00,-54.00,CLOSED,0
655888.558,0,1,0,1.000,1.000,1.000,-90.00,90.00,-54.00,CLOSED,0
655888.607,0,1,0,1.000,1.000,1.000,-90.00,90.00,-54.00,CLOSED,0
655888.657,0,1,0,1.000,1.000,0.999,-90.00,90.00,-54.00,CLOSED,0
655888.702,0,1,0,1.000,1.000,0.999,-90.00,90.00,-54.00,CLOSED,0
655888.754,0,1,0,1.000,1.000,0.999,-90.00,90.00,-54.00,CLOSED,0
655888.803,0,1,0,1.000,1.000,0.999,-90.00,90.00,-54.00,CLOSED,0
655888.853,0,1,0,1.000,1.000,0.999,-90.00,90.00,-54.00,CLOSED,0
655888.904,0,1,0,1.000,1.000,0.999,-90.00,90.00,-54.00,CLOSED,0
655888.953,0,1,0,1.000,1.000,0.999,-90.00,90.00,-54.00,CLOSED,0
655889.004,0,1,0,1.000,1.000,0.999,-90.00,90.00,-54.00,CLOSED,0
655889.053,0,1,0,1.000,1.000,0.999,-90.00,90.00,-54.00,CLOSED,0
655889.103,0,1,0,1.000,1.000,0.999,-90.00,90.00,-54.00,CLOSED,0
655889.154,0,1,0,1.000,1.000,0.998,-90.00,90.00,-54.00,CLOSED,0
655889.204,0,1,0,1.000,1.000,0.996,-90.00,90.00,-54.00,CLOSED,0
655889.253,0,1,0,1.000,0.999,0.992,-90.00,90.00,-54.00,CLOSED,0
655889.303,0,1,0,1.000,0.998,0.985,-90.00,90.00,-54.00,CLOSED,0
655889.353,0,1,0,1.000,0.988,0.978,-90.00,90.00,-54.00,CLOSED,0
655889.403,0,1,0,1.000,0.924,0.974,-90.00,90.00,-54.00,CLOSED,0
655889.453,0,1,0,1.000,0.623,0.976,-90.00,90.00,-54.00,CLOSED,0
655889.508,0,1,0,1.000,0.959,0.989,-90.00,90.00,-54.00,CLOSED,0
655889.560,0,1,0,1.000,0.995,0.995,-90.00,90.00,-54.00,CLOSED,0
655889.603,0,1,0,1.000,0.999,0.996,-90.00,90.00,-54.00,CLOSED,0
655889.653,0,1,0,1.000,1.000,0.998,-90.00,90.00,-54.00,CLOSED,0
655889.703,0,1,0,1.000,1.000,0.998,-90.00,90.00,-54.00,CLOSED,0
655889.753,0,1,0,1.000,1.000,0.999,-90.00,90.00,-54.00,CLOSED,0
655889.803,0,1,0,1.000,1.000,0.999,-90.00,90.00,-54.00,CLOSED,0
655889.853,0,0,0,1.000,1.000,0.999,-90.00,180.00,-54.00,CLOSED,1
655889.902,0,0,0,1.000,0.999,1.000,-90.00,180.00,-54.00,CLOSED,0
655889.953,0,0,0,1.000,0.999,1.000,-90.00,180.00,-54.00,CLOSED,0
655890.007,0,0,0,1.000,0.998,1.000,-90.00,180.00,-54.00,CLOSED,0
655890.055,0,0,0,1.000,0.996,1.000,-90.00,180.00,-54.00,CLOSED,0
655890.103,0,0,0,0.999,0.994,1.000,-90.00,180.00,-54.00,CLOSED,0
655890.153,0,0,0,0.999,0.986,1.000,-90.00,180.00,-54.00,CLOSED,0
655890.209,0,0,0,0.999,0.981,1.000,-90.00,180.00,-54.00,CLOSED,0
655890.253,0,0,0,0.999,0.985,1.000,-90.00,180.00,-54.00,CLOSED,0
655890.305,0,0,0,0.999,0.996,1.000,-90.00,180.00,-54.00,CLOSED,0
655890.353,0,0,0,0.997,0.996,1.000,-90.00,180.00,-54.00,CLOSED,0
655890.403,0,0,0,0.997,1.000,1.000,-90.00,180.00,-54.00,CLOSED,0
655890.453,0,0,0,0.994,1.000,1.000,-90.00,180.00,-54.00,CLOSED,0
655890.503,0,0,0,0.998,1.000,1.000,-90.00,180.00,-54.00,CLOSED,0
655890.553,0,0,0,0.999,1.000,1.000,-90.00,180.00,-54.00,CLOSED,0
655890.604,0,0,0,1.000,1.000,1.000,-90.00,180.00,-54.00,CLOSED,0
655890.653,0,0,0,1.000,1.000,1.000,-90.00,180.00,-54.00,CLOSED,0
655890.704,0,0,0,1.000,1.000,1.000,-90.00,180.00,-54.00,CLOSED,0
655890.753,0,0,0,1.000,1.000,1.000,-90.00,180.00,-54.00,CLOSED,0
655890.808,0,0,0,0.999,1.000,1.000,-90.00,180.00,-54.00,CLOSED,0
655890.853,0,0,0,1.000,1.000,1.000,-90.00,180.00,-54.00,CLOSED,0
655890.907,0,0,0,1.000,1.000,1.000,-90.00,180.00,-54.00,CLOSED,0
655890.958,0,0,0,1.000,1.000,1.000,-90.00,180.00,-54.00,CLOSED,0
655891.006,0,0,0,1.000,1.000,1.000,-90.00,180.00,-54.00,CLOSED,0
655891.057,0,0,0,1.000,1.000,1.000,-90.00,180.00,-54.00,CLOSED,0
655891.104,0,0,0,1.000,1.000,1.000,-90.00,180.00,-54.00,CLOSED,0
655891.152,0,0,0,1.000,1.000,1.000,-90.00,180.00,-54.00,CLOSED,0
655891.202,0,0,0,1.000,1.000,1.000,-90.00,180.00,-54.00,CLOSED,0
655891.253,0,0,0,1.000,1.000,1.000,-90.00,180.00,-54.00,CLOSED,0
655891.304,0,0,0,1.000,1.000,1.000,-90.00,180.00,-54.00,CLOSED,0
655891.353,0,0,0,1.000,1.000,1.000,-90.00,180.00,-54.00,CLOSED,0
655891.403,0,0,0,1.000,1.000,1.000,-90.00,180.00,-54.00,CLOSED,0
655891.453,0,0,0,1.000,1.000,1.000,-90.00,180.00,-54.00,CLOSED,0
655891.507,0,0,0,1.000,1.000,1.000,-90.00,180.00,-54.00,CLOSED,0
655891.553,0,0,0,1.000,1.000,1.000,-90.00,180.00,-54.00,CLOSED,0
655891.603,0,0,0,1.000,1.000,1.000,-90.00,180.00,-54.00,CLOSED,0
655891.653,0,0,0,1.000,1.000,1.000,-90.00,180.00,-54.00,CLOSED,0
655891.703,0,0,0,1.000,1.000,1.000,-90.00,180.00,-54.00,CLOSED,0
655891.753,0,0,0,1.000,1.000,1.000,-90.00,180.00,-54.00,CLOSED,0
655891.803,0,0,0,1.000,1.000,1.000,-90.00,180.00,-54.00,CLOSED,0
655891.853,0,0,0,1.000,1.000,1.000,-90.00,180.00,-54.00,CLOSED,0
655891.903,0,0,0,1.000,1.000,1.000,-90.00,180.00,-54.00,CLOSED,0
655891.953,0,0,0,1.000,1.000,1.000,-90.00,180.00,-54.00,CLOSED,0
655892.006,0,0,0,1.000,1.000,1.000,-90.00,180.00,-54.00,CLOSED,0
655892.055,0,0,0,1.000,1.000,1.000,-90.00,180.00,-54.00,CLOSED,0
655892.103,0,0,0,1.000,1.000,1.000,-90.00,180.00,-54.00,CLOSED,0
655892.154,0,0,0,1.000,1.000,1.000,-90.00,180.00,-54.00,CLOSED,0
655892.204,0,0,0,1.000,1.000,1.000,-90.00,180.00,-54.00,CLOSED,0
655892.254,0,0,0,1.000,1.000,1.000,-90.00,180.00,-54.00,CLOSED,0
655892.302,0,0,0,1.000,1.000,1.000,-90.00,180.00,-54.00,CLOSED,0
655892.359,0,0,0,1.000,1.000,1.000,-90.00,180.00,-54.00,CLOSED,0
655892.404,0,0,0,1.000,1.000,1.000,-90.00,180.00,-54.00,CLOSED,0
655892.454,0,0,0,1.000,1.000,1.000,-90.00,180.00,-54.00,CLOSED,0
655892.505,0,0,0,1.000,1.000,1.000,-90.00,180.00,-54.00,CLOSED,0
655892.557,0,0,0,1.000,1.000,1.000,-90.00,180.00,-54.00,CLOSED,0
655892.604,0,0,0,1.000,1.000,1.000,-90.00,180.00,-54.00,CLOSED,0
655892.653,0,0,0,1.000,1.000,1.000,-90.00,180.00,-54.00,CLOSED,0
655892.703,0,0,0,1.000,1.000,1.000,-90.00,180.00,-54.00,CLOSED,0
655892.754,0,0,0,1.000,1.000,1.000,-90.00,180.00,-54.00,CLOSED,0
655892.803,0,0,0,1.000,1.000,1.000,-90.00,180.00,-54.00,CLOSED,0
655892.853,0,0,0,1.000,1.000,1.000,-90.00,180.00,-54.00,CLOSED,0
655892.903,0,0,0,1.000,1.000,1.000,-90.00,180.00,-54.00,CLOSED,0
655892.953,0,0,0,1.000,1.000,1.000,-90.00,180.00,-54.00,CLOSED,0
655893.002,0,0,0,1.000,1.000,1.000,-90.00,180.00,-54.00,CLOSED,0
655893.055,0,0,0,1.000,1.000,1.000,-90.00,180.00,-54.00,CLOSED,0
655893.107,0,0,0,1.000,1.000,1.000,-90.00,180.00,-54.00,CLOSED,0
655893.157,0,0,0,1.000,1.000,1.000,-90.00,180.00,-54.00,CLOSED,0
655893.203,0,0,0,1.000,1.000,1.000,-90.00,180.00,-54.00,CLOSED,0
655893.256,0,0,0,1.000,1.000,1.000,-90.00,180.00,-54.00,CLOSED,0
655893.304,0,0,0,1.000,1.000,1.000,-90.00,180.00,-54.00,CLOSED,0
655893.358,0,0,0,1.000,1.000,1.000,-90.00,180.00,-54.00,CLOSED,0
655893.403,0,0,0,1.000,1.000,1.000,-90.00,180.00,-54.00,CLOSED,0
655893.453,0,0,0,1.000,1.000,1.000,-90.00,180.00,-54.00,CLOSED,0
655893.504,0,0,0,1.000,1.000,1.000,-90.00,180.00,-54.00,CLOSED,0
655893.555,0,0,0,1.000,1.000,1.000,-90.00,180.00,-54.00,CLOSED,0
655893.603,0,0,0,1.000,1.000,1.000,-90.00,180.00,-54.00,CLOSED,0
655893.659,0,0,0,1.000,1.000,1.000,-90.00,180.00,-54.00,CLOSED,0
655893.703,0,0,0,1.000,1.000,1.000,-90.00,180.00,-54.00,CLOSED,0
655893.753,0,0,0,1.000,1.000,1.000,-90.00,180.00,-54.00,CLOSED,0
655893.805,0,0,0,1.000,1.000,1.000,-90.00,180.00,-54.00,CLOSED,0
655893.853,0,0,0,1.000,1.000,1.000,-90.00,180.00,-54.00,CLOSED,0
655893.903,0,0,0,1.000,1.000,1.000,-90.00,180.00,-54.00,CLOSED,0
655893.953,0,0,0,1.000,1.000,1.000,-90.00,180.00,-54.00,CLOSED,0
655894.003,0,0,0,1.000,1.000,1.000,-90.00,180.00,-54.00,CLOSED,0
655894.053,0,0,0,1.000,1.000,1.000,-90.00,180.00,-54.00,CLOSED,0
655894.103,0,0,0,1.000,1.000,1.000,-90.00,180.00,-54.00,CLOSED,0
655894.153,0,0,0,1.000,1.000,1.000,-90.00,180.00,-54.00,CLOSED,0
655894.208,0,0,0,1.000,1.000,1.000,-90.00,180.00,-54.00,CLOSED,0
655894.253,0,0,0,1.000,1.000,1.000,-90.00,180.00,-54.00,CLOSED,0
655894.303,0,0,0,1.000,1.000,1.000,-90.00,180.00,-54.00,CLOSED,0
655894.355,0,0,0,1.000,1.000,1.000,-90.00,180.00,-54.00,CLOSED,0
655894.403,0,0,0,1.000,1.000,1.000,-90.00,180.00,-54.00,CLOSED,0
655894.454,0,0,0,1.000,1.000,1.000,-90.00,180.00,-54.00,CLOSED,0
655894.503,0,0,0,1.000,1.000,1.000,-90.00,180.00,-54.00,CLOSED,0
655894.553,0,0,0,1.000,1.000,1.000,-90.00,180.00,-54.00,CLOSED,0
655894.607,0,0,0,1.000,1.000,1.000,-90.00,180.00,-54.00,CLOSED,0
655894.653,0,0,0,1.000,1.000,1.000,-90.00,180.00,-54.00,CLOSED,0
655894.704,0,0,0,1.000,1.000,1.000,-90.00,180.00,-54.00,CLOSED,0
655894.757,0,0,0,1.000,1.000,1.000,-90.00,180.00,-54.00,CLOSED,0
655894.803,0,0,0,1.000,1.000,1.000,-90.00,180.00,-54.00,CLOSED,0
655894.852,0,0,0,1.000,1.000,1.000,-90.00,180.00,-54.00,CLOSED,0
655894.902,0,0,0,1.000,1.000,1.000,-90.00,180.00,-54.00,CLOSED,0
655894.953,0,0,0,1.000,1.000,1.000,-90.00,180.00,-54.00,CLOSED,0
655895.007,0,0,0,1.000,1.000,1.000,-90.00,180.00,-54.00,CLOSED,0
655895.054,0,0,0,1.000,1.000,1.000,-90.00,180.00,-54.00,CLOSED,0
655895.103,0,0,0,1.000,1.000,1.000,-90.00,180.00,-54.00,CLOSED,0
655895.153,0,0,0,1.000,1.000,1.000,-90.00,180.00,-54.00,CLOSED,0
655895.203,0,0,0,1.000,1.000,1.000,-90.00,180.00,-54.00,CLOSED,0
655895.257,0,0,0,1.000,1.000,1.000,-90.00,180.00,-54.00,CLOSED,0
655895.303,0,0,0,1.000,1.000,1.000,-90.00,180.00,-54.00,CLOSED,0
655895.353,0,0,0,1.000,1.000,1.000,-90.00,180.00,-54.00,CLOSED,0
655895.404,0,0,0,1.000,1.000,1.000,-90.00,180.00,-54.00,CLOSED,0
655895.453,0,0,0,1.000,1.000,1.000,-90.00,180.00,-54.00,CLOSED,0
655895.508,0,0,0,1.000,1.000,1.000,-90.00,180.00,-54.00,CLOSED,0
655895.553,0,0,0,1.000,1.000,1.000,-90.00,180.00,-54.00,CLOSED,0
655895.603,0,0,0,1.000,1.000,1.000,-90.00,180.00,-54.00,CLOSED,0
655895.653,0,0,0,1.000,1.000,1.000,-90.00,180.00,-54.00,CLOSED,0
655895.703,0,0,0,1.000,1.000,1.000,-90.00,180.00,-54.00,CLOSED,0
655895.753,0,0,0,1.000,1.000,1.000,-90.00,180.00,-54.00,CLOSED,0
655895.808,0,0,0,1.000,1.000,1.000,-90.00,180.00,-54.00,CLOSED,0
655895.862,0,0,0,1.000,1.000,1.000,-90.00,180.00,-54.00,CLOSED,0
655895.907,0,0,0,1.000,1.000,1.000,-90.00,180.00,-54.00,CLOSED,0
655895.952,0,0,0,1.000,1.000,1.000,-90.00,180.00,-54.00,CLOSED,0
655896.005,0,0,0,1.000,1.000,1.000,-90.00,180.00,-54.00,CLOSED,0
655896.053,0,0,0,1.000,1.000,1.000,-90.00,180.00,-54.00,CLOSED,0
655896.103,0,0,0,1.000,1.000,1.000,-90.00,180.00,-54.00,CLOSED,0
655896.153,0,0,0,1.000,1.000,1.000,-90.00,180.00,-54.00,CLOSED,0
655896.204,0,0,0,1.000,1.000,1.000,-90.00,180.00,-54.00,CLOSED,0
655896.253,0,0,0,1.000,1.000,1.000,-90.00,180.00,-54.00,CLOSED,0
655896.307,0,0,0,1.000,1.000,1.000,-90.00,180.00,-54.00,CLOSED,0
655896.353,0,0,0,1.000,1.000,1.000,-90.00,180.00,-54.00,CLOSED,0
655896.403,0,0,0,1.000,1.000,1.000,-90.00,180.00,-54.00,CLOSED,0
655896.453,0,0,0,1.000,1.000,1.000,-90.00,180.00,-54.00,CLOSED,0
655896.503,0,0,0,1.000,1.000,1.000,-90.00,180.00,-54.00,CLOSED,0
655896.557,0,0,0,1.000,1.000,1.000,-90.00,180.00,-54.00,CLOSED,0
655896.602,0,0,0,1.000,1.000,1.000,-90.00,180.00,-54.00,CLOSED,0
655896.653,0,0,0,1.000,1.000,1.000,-90.00,180.00,-54.00,CLOSED,0
655896.703,0,0,0,1.000,1.000,1.000,-90.00,180.00,-54.00,CLOSED,0
655896.753,0,0,0,1.000,1.000,1.000,-90.00,180.00,-54.00,CLOSED,0
655896.808,0,0,0,0.999,1.000,1.000,-90.00,180.00,-54.00,CLOSED,0
655896.852,0,0,0,0.858,1.000,1.000,-90.00,180.00,-54.00,CLOSED,0
655896.903,0,0,0,0.484,1.000,1.000,-90.00,180.00,-54.00,CLOSED,0
655896.953,0,0,0,0.481,1.000,1.000,-90.00,180.00,-54.00,CLOSED,0
655897.003,0,0,0,0.604,1.000,1.000,-90.00,180.00,-54.00,CLOSED,0
655897.058,0,0,0,0.670,1.000,1.000,-90.00,180.00,-54.00,CLOSED,0
655897.103,0,0,0,0.776,1.000,1.000,-90.00,180.00,-54.00,CLOSED,0
655897.153,0,0,0,0.937,1.000,1.000,-90.00,180.00,-54.00,CLOSED,0
655897.203,0,0,0,0.997,1.000,1.000,-90.00,180.00,-54.00,CLOSED,0
655897.253,0,0,0,1.000,1.000,1.000,-90.00,180.00,-54.00,CLOSED,0
655897.303,0,0,0,1.000,1.000,1.000,-90.00,180.00,-54.00,CLOSED,0
655897.353,0,0,0,1.000,1.000,1.000,-90.00,180.00,-54.00,CLOSED,0
655897.403,3,0,0,1.000,1.000,1.000,-90.00,180.00,-54.00,OPEN,0
655897.453,3,0,0,1.000,1.000,1.000,-90.00,180.00,-54.00,OPEN,0
655897.502,3,0,0,1.000,1.000,1.000,-90.00,180.00,-54.00,OPEN,0
655897.557,3,0,0,1.000,1.000,1.000,-90.00,180.00,-54.00,OPEN,0
655897.608,3,0,0,1.000,1.000,1.000,-90.00,180.00,-54.00,OPEN,0
655897.657,3,0,0,1.000,1.000,1.000,-90.00,180.00,-54.00,OPEN,0
655897.703,3,0,0,1.000,1.000,1.000,-90.00,180.00,-54.00,OPEN,0
655897.752,3,0,0,1.000,1.000,1.000,-90.00,180.00,-54.00,OPEN,0
655897.806,3,0,0,1.000,1.000,1.000,-90.00,180.00,-54.00,OPEN,0
655897.858,3,0,0,1.000,1.000,1.000,-90.00,180.00,-54.00,OPEN,0
655897.903,3,0,0,1.000,1.000,1.000,-90.00,180.00,-54.00,OPEN,0
655897.953,3,0,0,1.000,1.000,1.000,-90.00,180.00,-54.00,OPEN,0
655898.002,3,0,0,1.000,1.000,1.000,-90.00,180.00,-54.00,OPEN,0
655898.054,3,0,0,1.000,1.000,1.000,-90.00,180.00,-54.00,OPEN,0
655898.103,3,0,0,1.000,1.000,1.000,-90.00,180.00,-54.00,OPEN,0
655898.153,3,0,0,1.000,1.000,1.000,-90.00,180.00,-54.00,OPEN,0
655898.202,3,0,0,1.000,1.000,1.000,-90.00,180.00,-54.00,OPEN,0
655898.253,3,0,0,1.000,1.000,1.000,-90.00,180.00,-54.00,OPEN,0
655898.303,3,0,0,1.000,1.000,1.000,-90.00,180.00,-54.00,OPEN,0
655898.353,3,0,0,1.000,1.000,1.000,-90.00,180.00,-54.00,OPEN,0
655898.409,3,0,0,1.000,1.000,1.000,-90.00,180.00,-54.00,OPEN,0
655898.452,3,0,0,1.000,1.000,1.000,-90.00,180.00,-54.00,OPEN,0
655898.503,3,0,0,1.000,1.000,1.000,-90.00,180.00,-54.00,OPEN,0
655898.554,3,0,0,1.000,1.000,1.000,-90.00,180.00,-54.00,OPEN,0
655898.603,3,0,0,1.000,1.000,1.000,-90.00,180.00,-54.00,OPEN,0
655898.654,3,0,0,1.000,1.000,1.000,-90.00,180.00,-54.00,OPEN,0
655898.703,3,0,0,1.000,1.000,1.000,-90.00,180.00,-54.00,OPEN,0
655898.756,3,0,0,1.000,1.000,1.000,-90.00,180.00,-54.00,OPEN,0
655898.808,3,0,0,1.000,1.000,1.000,-90.00,180.00,-54.00,OPEN,0
655898.858,3,0,0,1.000,1.000,1.000,-90.00,180.00,-54.00,OPEN,0
655898.908,3,0,0,1.000,1.000,1.000,-90.00,180.00,-54.00,OPEN,0
655898.958,3,0,0,1.000,1.000,1.000,-90.00,180.00,-54.00,OPEN,0
655899.008,3,0,0,1.000,1.000,1.000,-90.00,180.00,-54.00,OPEN,0
655899.057,3,0,0,1.000,1.000,1.000,-90.00,180.00,-54.00,OPEN,0
655899.107,3,0,0,1.000,1.000,1.000,-90.00,180.00,-54.00,OPEN,0
655899.154,3,0,0,1.000,1.000,1.000,-90.00,180.00,-54.00,OPEN,0
655899.203,3,0,0,1.000,1.000,1.000,-90.00,180.00,-54.00,OPEN,0
655899.253,3,0,0,1.000,1.000,1.000,-90.00,180.00,-54.00,OPEN,0
655899.307,3,0,0,1.000,1.000,1.000,-90.00,180.00,-54.00,OPEN,0
655899.356,3,0,0,1.000,1.000,1.000,-90.00,180.00,-54.00,OPEN,0
655899.403,3,0,0,1.000,1.000,1.000,-90.00,180.00,-54.00,OPEN,0
655899.453,3,0,0,1.000,1.000,1.000,-90.00,180.00,-54.00,OPEN,0
655899.503,3,0,0,1.000,1.000,1.000,-90.00,180.00,-54.00,OPEN,0
655899.554,3,0,0,1.000,1.000,1.000,-90.00,180.00,-54.00,OPEN,0
655899.604,3,0,0,1.000,1.000,1.000,-90.00,180.00,-54.00,OPEN,0
655899.653,3,0,0,1.000,1.000,1.000,-90.00,180.00,-54.00,OPEN,0
655899.703,3,0,0,1.000,1.000,1.000,-90.00,180.00,-54.00,OPEN,0
655899.759,3,0,0,1.000,1.000,1.000,-90.00,180.00,-54.00,OPEN,0
655899.803,3,0,0,1.000,1.000,1.000,-90.00,180.00,-54.00,OPEN,0
655899.853,3,0,0,1.000,1.000,1.000,-90.00,180.00,-54.00,OPEN,0
655899.905,3,0,0,1.000,1.000,1.000,-90.00,180.00,-54.00,OPEN,0
655899.954,3,0,0,1.000,1.000,1.000,-90.00,180.00,-54.00,OPEN,0
655900.008,3,0,0,1.000,1.000,1.000,-90.00,180.00,-54.00,OPEN,0
655900.053,3,0,0,1.000,1.000,1.000,-90.00,180.00,-54.00,OPEN,0
655900.104,3,0,0,1.000,1.000,1.000,-90.00,180.00,-54.00,OPEN,0
655900.153,3,0,0,1.000,1.000,1.000,-90.00,180.00,-54.00,OPEN,0
655900.203,3,0,0,1.000,1.000,1.000,-90.00,180.00,-54.00,OPEN,0
655900.257,3,0,0,1.000,1.000,1.000,-90.00,180.00,-54.00,OPEN,0
655900.303,3,0,0,1.000,1.000,1.000,-90.00,180.00,-54.00,OPEN,0
655900.353,3,0,0,1.000,1.000,1.000,-90.00,180.00,-54.00,OPEN,0
655900.403,3,0,0,1.000,1.000,1.000,-90.00,180.00,-54.00,OPEN,0
655900.453,3,0,0,1.000,1.000,1.000,-90.00,180.00,-54.00,OPEN,0
655900.503,3,0,0,1.000,1.000,1.000,-90.00,180.00,-54.00,OPEN,0
655900.553,3,0,0,1.000,1.000,1.000,-90.00,180.00,-54.00,OPEN,0
655900.603,3,0,0,1.000,1.000,1.000,-90.00,180.00,-54.00,OPEN,0
655900.653,3,0,0,1.000,1.000,1.000,-90.00,180.00,-54.00,OPEN,0
655900.703,3,0,0,1.000,1.000,1.000,-90.00,180.00,-54.00,OPEN,0
655900.753,3,0,0,1.000,1.000,1.000,-90.00,180.00,-54.00,OPEN,0
655900.803,3,0,0,1.000,1.000,1.000,-90.00,180.00,-54.00,OPEN,0
655900.853,3,0,0,1.000,1.000,1.000,-90.00,180.00,-54.00,OPEN,0
655900.903,3,0,0,1.000,1.000,1.000,-90.00,180.00,-54.00,OPEN,0
655900.953,3,0,0,1.000,1.000,1.000,-90.00,180.00,-54.00,OPEN,0
655901.007,3,0,0,1.000,1.000,1.000,-90.00,180.00,-54.00,OPEN,0
655901.054,3,0,0,1.000,1.000,1.000,-90.00,180.00,-54.00,OPEN,0
655901.103,3,0,0,1.000,1.000,1.000,-90.00,180.00,-54.00,OPEN,0
655901.153,3,0,0,1.000,1.000,1.000,-90.00,180.00,-54.00,OPEN,0
655901.209,3,0,0,1.000,1.000,1.000,-90.00,180.00,-54.00,OPEN,0
655901.254,3,0,0,1.000,1.000,1.000,-90.00,180.00,-54.00,OPEN,0
655901.303,3,0,0,1.000,1.000,1.000,-90.00,180.00,-54.00,OPEN,0
655901.354,3,0,0,1.000,1.000,1.000,-90.00,180.00,-54.00,OPEN,0
655901.405,3,0,0,1.000,1.000,1.000,-90.00,180.00,-54.00,OPEN,0
655901.458,3,0,0,1.000,1.000,1.000,-90.00,180.00,-54.00,OPEN,0
655901.503,3,0,0,1.000,1.000,1.000,-90.00,180.00,-54.00,OPEN,0
655901.557,3,0,0,1.000,1.000,1.000,-90.00,180.00,-54.00,OPEN,0
655901.603,3,0,0,1.000,1.000,1.000,-90.00,180.00,-54.00,OPEN,0
655901.654,3,0,0,1.000,1.000,1.000,-90.00,180.00,-54.00,OPEN,0
655901.704,3,0,0,1.000,1.000,1.000,-90.00,180.00,-54.00,OPEN,0
655901.753,3,0,0,1.000,1.000,1.000,-90.00,180.00,-54.00,OPEN,0
655901.803,3,0,0,1.000,1.000,1.000,-90.00,180.00,-54.00,OPEN,0
655901.853,3,0,0,1.000,1.000,1.000,-90.00,180.00,-54.00,OPEN,0
655901.903,3,0,0,1.000,1.000,1.000,-90.00,180.00,-54.00,OPEN,0
655901.953,3,0,0,1.000,1.000,1.000,-90.00,180.00,-54.00,OPEN,0
655902.003,3,0,0,1.000,1.000,1.000,-90.00,180.00,-54.00,OPEN,0
655902.053,3,0,0,1.000,1.000,1.000,-90.00,180.00,-54.00,OPEN,0
655902.103,3,0,0,1.000,1.000,1.000,-90.00,180.00,-54.00,OPEN,0
655902.154,3,0,0,1.000,1.000,1.000,-90.00,180.00,-54.00,OPEN,0
655902.202,3,0,0,1.000,1.000,1.000,-90.00,180.00,-54.00,OPEN,0
655902.253,3,0,0,1.000,1.000,1.000,-90.00,180.00,-54.00,OPEN,0
655902.305,3,0,0,1.000,1.000,1.000,-90.00,180.00,-54.00,OPEN,0
655902.353,3,0,0,1.000,1.000,1.000,-90.00,180.00,-54.00,OPEN,0
655902.408,3,0,0,1.000,1.000,1.000,-90.00,180.00,-54.00,OPEN,0
655902.453,3,0,0,1.000,1.000,1.000,-90.00,180.00,-54.00,OPEN,0
655902.503,3,0,0,1.000,1.000,1.000,-90.00,180.00,-54.00,OPEN,0
655902.553,3,0,0,1.000,1.000,1.000,-90.00,180.00,-54.00,OPEN,0
655902.603,3,0,0,1.000,1.000,1.000,-90.00,180.00,-54.00,OPEN,0
655902.654,3,0,0,1.000,1.000,1.000,-90.00,180.00,-54.00,OPEN,0
655902.703,3,0,0,1.000,1.000,1.000,-90.00,180.00,-54.00,OPEN,0
655902.753,3,0,0,0.999,1.000,1.000,-90.00,180.00,-54.00,OPEN,0
655902.807,3,0,0,0.975,1.000,1.000,-90.00,180.00,-54.00,OPEN,0
655902.859,3,0,0,0.869,1.000,1.000,-90.00,180.00,-54.00,OPEN,0
655902.907,3,0,0,0.666,1.000,1.000,-90.00,180.00,-54.00,OPEN,0
655902.958,3,0,0,0.511,1.000,1.000,-90.00,180.00,-54.00,OPEN,0
655903.003,3,0,0,0.589,1.000,1.000,-90.00,180.00,-54.00,OPEN,0
655903.052,3,0,0,0.639,1.000,1.000,-90.00,180.00,-54.00,OPEN,0
655903.103,3,0,0,0.562,1.000,1.000,-90.00,180.00,-54.00,OPEN,0
655903.154,3,0,0,0.920,1.000,1.000,-90.00,180.00,-54.00,OPEN,0
655903.204,3,0,0,1.000,1.000,1.000,-90.00,180.00,-54.00,OPEN,0
655903.255,3,0,0,1.000,1.000,1.000,-90.00,180.00,-54.00,OPEN,0
655903.303,3,0,0,1.000,1.000,1.000,-90.00,180.00,-54.00,OPEN,0
655903.357,3,0,0,1.000,1.000,1.000,-90.00,180.00,-54.00,OPEN,0
655903.406,3,0,0,1.000,1.000,1.000,-90.00,180.00,-54.00,OPEN,0
655903.453,3,0,0,1.000,1.000,1.000,-90.00,180.00,-54.00,OPEN,0
655903.503,0,0,0,1.000,1.000,1.000,-90.00,180.00,-54.00,OPEN,0
655903.552,0,0,0,1.000,1.000,1.000,-90.00,180.00,-54.00,OPEN,0
655903.603,0,0,0,1.000,1.000,1.000,-90.00,180.00,-54.00,OPEN,0
655903.652,0,0,0,1.000,1.000,1.000,-90.00,180.00,-54.00,OPEN,0
655903.703,0,0,0,1.000,1.000,1.000,-90.00,180.00,-54.00,OPEN,0
655903.759,0,0,0,1.000,1.000,1.000,-90.00,180.00,-54.00,OPEN,0
655903.803,0,0,0,1.000,1.000,1.000,-90.00,180.00,-54.00,OPEN,0
655903.853,0,0,0,1.000,1.000,1.000,-90.00,180.00,-54.00,OPEN,0
655903.903,0,0,0,1.000,1.000,1.000,-90.00,180.00,-54.00,OPEN,0
655903.956,0,0,0,1.000,1.000,1.000,-90.00,180.00,-54.00,OPEN,0
655904.003,0,0,0,1.000,1.000,1.000,-90.00,180.00,-54.00,OPEN,0
655904.053,0,0,0,1.000,1.000,1.000,-90.00,180.00,-54.00,OPEN,0
655904.103,0,0,0,1.000,1.000,1.000,-90.00,180.00,-54.00,OPEN,0
655904.154,0,0,0,1.000,1.000,1.000,-90.00,180.00,-54.00,OPEN,0
655904.203,0,0,0,1.000,1.000,1.000,-90.00,180.00,-54.00,OPEN,0
655904.253,0,0,0,1.000,1.000,1.000,-90.00,180.00,-54.00,OPEN,0
655904.303,0,0,0,1.000,1.000,1.000,-90.00,180.00,-54.00,OPEN,0
655904.354,0,0,0,1.000,1.000,1.000,-90.00,180.00,-54.00,OPEN,0
655904.403,0,0,0,1.000,1.000,1.000,-90.00,180.00,-54.00,OPEN,0
655904.455,0,0,0,1.000,1.000,1.000,-90.00,180.00,-54.00,OPEN,0
655904.503,0,0,0,0.999,1.000,1.000,-90.00,180.00,-54.00,OPEN,0
655904.553,0,0,0,1.000,1.000,1.000,-90.00,180.00,-54.00,OPEN,0
655904.603,0,0,0,1.000,1.000,1.000,-90.00,180.00,-54.00,OPEN,0
655904.652,0,0,0,1.000,1.000,1.000,-90.00,180.00,-54.00,OPEN,0
655904.704,0,0,0,1.000,1.000,1.000,-90.00,180.00,-54.00,OPEN,0
655904.753,0,0,0,1.000,1.000,1.000,-90.00,180.00,-54.00,OPEN,0
655904.804,0,0,0,1.000,1.000,1.000,-90.00,180.00,-54.00,OPEN,0
655904.853,0,0,0,1.000,1.000,1.000,-90.00,180.00,-54.00,OPEN,0
655904.903,0,0,0,1.000,1.000,1.000,-90.00,180.00,-54.00,OPEN,0
655904.953,0,0,0,1.000,1.000,1.000,-90.00,180.00,-54.00,OPEN,0
655905.003,0,0,0,1.000,1.000,1.000,-90.00,180.00,-54.00,OPEN,0
655905.054,0,0,0,1.000,1.000,1.000,-90.00,180.00,-54.00,OPEN,0
655905.103,0,0,0,1.000,1.000,1.000,-90.00,180.00,-54.00,OPEN,0
655905.152,0,0,0,1.000,1.000,1.000,-90.00,180.00,-54.00,OPEN,0
655905.203,0,0,0,1.000,1.000,1.000,-90.00,180.00,-54.00,OPEN,0
655905.253,0,0,0,1.000,1.000,1.000,-90.00,180.00,-54.00,OPEN,0
655905.303,0,0,0,1.000,1.000,1.000,-90.00,180.00,-54.00,OPEN,0
655905.353,0,0,0,1.000,1.000,1.000,-90.00,180.00,-54.00,OPEN,0
655905.404,0,0,0,1.000,1.000,1.000,-90.00,180.00,-54.00,OPEN,0
655905.453,0,0,0,1.000,1.000,1.000,-90.00,180.00,-54.00,OPEN,0
655905.503,0,0,0,1.000,1.000,1.000,-90.00,180.00,-54.00,OPEN,0
655905.553,0,0,0,1.000,1.000,1.000,-90.00,180.00,-54.00,OPEN,0
655905.603,0,0,0,1.000,1.000,1.000,-90.00,180.00,-54.00,OPEN,0
655905.653,0,0,0,1.000,1.000,1.000,-90.00,180.00,-54.00,OPEN,0
655905.703,0,0,0,1.000,1.000,1.000,-90.00,180.00,-54.00,OPEN,0
655905.753,0,0,0,1.000,1.000,1.000,-90.00,180.00,-54.00,OPEN,0
655905.803,0,0,0,1.000,1.000,1.000,-90.00,180.00,-54.00,OPEN,0
655905.853,0,0,0,1.000,1.000,1.000,-90.00,180.00,-54.00,OPEN,0
655905.903,0,0,0,1.000,1.000,1.000,-90.00,180.00,-54.00,OPEN,0
655905.953,0,0,0,1.000,1.000,1.000,-90.00,180.00,-54.00,OPEN,0
655906.005,0,0,0,1.000,1.000,1.000,-90.00,180.00,-54.00,OPEN,0
655906.058,0,0,0,1.000,1.000,1.000,-90.00,180.00,-54.00,OPEN,0
655906.104,0,0,0,1.000,1.000,1.000,-90.00,180.00,-54.00,OPEN,0
655906.159,0,0,0,1.000,1.000,1.000,-90.00,180.00,-54.00,OPEN,0
655906.203,0,0,0,1.000,1.000,1.000,-90.00,180.00,-54.00,OPEN,0
655906.254,0,0,0,1.000,1.000,1.000,-90.00,180.00,-54.00,OPEN,0
655906.303,0,0,0,1.000,1.000,1.000,-90.00,180.00,-54.00,OPEN,0
655906.354,0,0,0,1.000,1.000,1.000,-90.00,180.00,-54.00,OPEN,0
655906.406,0,0,0,1.000,1.000,1.000,-90.00,180.00,-54.00,OPEN,0
655906.454,0,0,0,1.000,1.000,1.000,-90.00,180.00,-54.00,OPEN,0
655906.503,0,0,0,1.000,1.000,1.000,-90.00,180.00,-54.00,OPEN,0
655906.555,0,0,0,1.000,1.000,1.000,-90.00,180.00,-54.00,OPEN,0
655906.603,0,0,0,1.000,1.000,1.000,-90.00,180.00,-54.00,OPEN,0
655906.653,0,0,0,1.000,1.000,1.000,-90.00,180.00,-54.00,OPEN,0
655906.703,0,0,0,1.000,1.000,1.000,-90.00,180.00,-54.00,OPEN,0
655906.753,0,0,0,1.000,1.000,1.000,-90.00,180.00,-54.00,OPEN,0
655906.807,0,0,0,1.000,1.000,1.000,-90.00,180.00,-54.00,OPEN,0
655906.858,0,0,0,1.000,1.000,1.000,-90.00,180.00,-54.00,OPEN,0
655906.908,0,0,0,1.000,1.000,1.000,-90.00,180.00,-54.00,OPEN,0
655906.957,0,0,0,1.000,1.000,1.000,-90.00,180.00,-54.00,OPEN,0
655907.007,0,0,0,1.000,1.000,1.000,-90.00,180.00,-54.00,OPEN,0
655907.058,0,0,0,1.000,1.000,1.000,-90.00,180.00,-54.00,OPEN,0
655907.107,0,0,0,1.000,1.000,1.000,-90.00,180.00,-54.00,OPEN,0
655907.156,0,0,0,1.000,1.000,1.000,-90.00,180.00,-54.00,OPEN,0
655907.203,0,0,0,1.000,1.000,1.000,-90.00,180.00,-54.00,OPEN,0
655907.253,0,0,0,1.000,1.000,1.000,-90.00,180.00,-54.00,OPEN,0
655907.303,0,0,0,1.000,1.000,1.000,-90.00,180.00,-54.00,OPEN,0
655907.357,0,0,0,1.000,1.000,1.000,-90.00,180.00,-54.00,OPEN,0
655907.403,0,0,0,1.000,1.000,1.000,-90.00,180.00,-54.00,OPEN,0
655907.454,0,0,0,1.000,1.000,1.000,-90.00,180.00,-54.00,OPEN,0
655907.503,0,0,0,1.000,1.000,1.000,-90.00,180.00,-54.00,OPEN,0
655907.553,0,0,0,1.000,1.000,1.000,-90.00,180.00,-54.00,OPEN,0
655907.605,0,0,0,1.000,1.000,1.000,-90.00,180.00,-54.00,OPEN,0
655907.653,0,0,0,1.000,1.000,1.000,-90.00,180.00,-54.00,OPEN,0
655907.703,0,0,0,1.000,1.000,1.000,-90.00,180.00,-54.00,OPEN,0
655907.758,0,0,0,1.000,1.000,1.000,-90.00,180.00,-54.00,OPEN,0
655907.803,0,0,0,1.000,1.000,1.000,-90.00,180.00,-54.00,OPEN,0
655907.853,0,0,0,1.000,1.000,1.000,-90.00,180.00,-54.00,OPEN,0
655907.907,0,0,0,1.000,1.000,1.000,-90.00,180.00,-54.00,OPEN,0
655907.957,0,0,0,1.000,1.000,1.000,-90.00,180.00,-54.00,OPEN,0
655908.003,0,0,0,1.000,1.000,1.000,-90.00,180.00,-54.00,OPEN,0
655908.053,0,0,0,1.000,1.000,1.000,-90.00,180.00,-54.00,OPEN,0
655908.104,0,0,0,1.000,1.000,1.000,-90.00,180.00,-54.00,OPEN,0
655908.153,0,0,0,1.000,1.000,1.000,-90.00,180.00,-54.00,OPEN,0
655908.203,0,0,0,1.000,1.000,1.000,-90.00,180.00,-54.00,OPEN,0
655908.252,0,0,0,1.000,1.000,1.000,-90.00,180.00,-54.00,OPEN,0
655908.303,0,0,0,1.000,1.000,1.000,-90.00,180.00,-54.00,OPEN,0
655908.353,0,0,0,1.000,1.000,1.000,-90.00,180.00,-54.00,OPEN,0
655908.410,0,0,0,1.000,1.000,1.000,-90.00,180.00,-54.00,OPEN,0
